0,1,2
-11.013053,1.2547514,2.2337618
30.088,-5.570348,3.0903769
-32.461613,13.163149,2.050439
-2.8574204,1.0533997,3.632759
-6.6051645,2.6595082,2.7120748
-5.8571863,3.1874235,3.9472306
35.40034,-2.9701908,4.240137
-18.651419,4.144185,0.73733
-0.5426159,0.65377074,6.5624375
17.332315,-0.42031258,7.0478506
21.29281,-1.0423954,5.8851295
28.746185,-3.335919,4.576223
40.17897,-4.290525,3.5823913
-12.186415,5.4221187,3.055138
23.540983,-1.5669882,5.9655857
6.091427,8.763734,-0.5061737
1.0281901,-3.940253,2.788045
15.996325,-0.1483911,1.3514165
-22.997734,6.634386,3.278828
7.4705205,0.8691203,2.2507787
-6.949995,4.249692,-5.527265
1.7249528,3.3600142,1.2793219
14.665174,-4.388293,-0.49102512
-32.783333,11.390609,2.5083735
10.20667,2.5686145,3.0034997
-8.723171,6.566866,-1.0069526
31.385048,-4.6570168,3.5913467
-1.900958,4.7240868,-5.1020446
-4.8588586,2.8325958,4.7917137
11.009152,5.6164474,1.2979907
-2.1462488,4.7245407,-5.1329675
11.013963,7.376924,0.81745166
12.417844,7.210298,1.6276011
31.244654,-4.771948,3.3964603
-33.78331,13.026089,1.8790694
29.026136,-2.6142118,5.9571247
10.478837,7.7231565,5.1322284
8.271892,5.982327,-0.8695864
26.248371,-1.4851668,0.058095425
40.259003,-4.1390634,3.5620058
-1.6496916,4.4501305,-4.330652
0.6484088,3.1089826,-5.189554
-29.988052,10.783699,1.0266958
-7.010706,7.75051,3.107257
21.709305,1.5773177,-3.1503317
-1.1714294,0.9440882,6.909194
25.605448,-1.7860286,6.1961637
-15.374568,1.3212028,-7.442653
21.132057,-2.0957496,-3.0491493
-3.1738064,1.8067491,6.300954
-1.7600081,10.51388,2.9672253
-5.329285,7.796455,2.0086138
17.186264,-0.6489069,4.2726307
25.19037,3.9359128,2.3061252
-29.859016,10.378152,0.13039762
-26.674158,5.93048,2.210507
-32.850353,12.014621,1.8959439
-21.166502,6.097592,4.243691
22.800022,-1.460431,5.8894477
-23.326065,6.3894024,2.379176
24.006414,5.5487804,-1.1775751
20.851675,-1.2163035,-2.0719428
-32.930084,13.231428,0.7070181
-33.359818,11.60071,1.8348854
28.599022,-3.7057972,-0.7770263
-18.876223,5.262924,3.7381341
-9.264843,3.5194304,1.8179069
19.382029,-1.0646787,6.700283
-1.8014401,4.87651,-4.680217
-34.20708,11.977943,1.2037044
-3.0920072,2.1604633,-0.017739391
31.440283,-2.6788814,4.4866586
-34.090733,12.291887,0.9557218
20.164036,1.2922922,-5.0040593
19.395586,5.988678,1.4581786
17.064941,6.9281564,-0.26577112
19.496326,4.5070176,1.0169203
11.574051,0.08767516,4.84775
10.2871895,0.30380744,1.9105055
-3.7046955,1.9434118,6.2038493
34.176907,-2.60746,3.2581658
12.865992,0.44202602,0.23912914
-20.881763,4.8969455,1.2799002
-3.1029727,1.5066348,5.7538815
-33.67434,12.499332,0.38677368
34.59553,-1.8015876,0.9704529
19.330006,6.5212264,1.394165
-4.7733984,2.3772085,4.863129
-20.678587,5.3745317,-0.613704
8.36095,5.853822,-3.0143573
4.9223537,4.8919597,-4.6569004
-5.527602,1.7775245,3.9702282
-1.5772753,7.808927,1.9796782
-10.977967,1.390181,2.128318
-3.7419906,1.9498216,6.72415
9.655628,0.8368952,2.0174966
4.5608664,10.073769,-0.09704393
19.91357,2.9262083,3.960265
15.087947,-1.8526578,5.299519
5.0863047,10.200679,-0.093974546
-12.24554,6.811899,-1.1982173
12.429486,0.76309866,0.41627407
18.621426,5.4552937,1.3078108
32.13003,-2.6713068,4.495664
4.1324277,9.481156,-0.60661644
28.642267,-3.3140037,4.047872
-0.92431086,-0.0028766163,6.03097
-27.185278,7.4118094,3.695749
29.623394,-4.365021,2.5166423
16.78997,0.6193236,5.910961
8.612159,7.297044,6.1861053
-15.638978,6.2532816,1.2459662
-13.922419,3.4154756,2.45361
-32.563652,11.878408,2.2791488
-14.192463,3.3107789,-2.147089
-10.513153,5.9362583,-0.0368482
30.876595,-2.079919,3.7698927
36.12776,-2.574068,3.9349751
-1.9563266,1.4559437,6.8285484
-7.8884506,1.8611182,-2.2575107
-0.82711345,1.8884445,4.973853
-0.6947862,2.1249435,5.068608
-21.591022,5.3225327,2.1003814
9.415692,5.5791497,-3.260057
3.6065457,3.2929041,5.840707
-32.807945,12.530639,1.1738383
-32.841934,13.071909,0.59753203
-29.85894,9.706119,0.2749693
19.457718,6.7367697,-1.8979291
-22.894001,7.5780077,4.002562
21.370564,-0.9905952,5.8146195
17.86066,5.2470913,1.5159668
6.130828,9.007279,0.1501046
-16.548323,3.9059896,-0.12543023
17.67932,-5.851388,2.7756994
36.307846,-3.0954628,4.032695
-3.343792,1.9360542,3.4971702
23.795454,5.078911,-2.0121496
-20.83881,4.3528805,2.196659
-23.760412,7.6619925,1.7146811
35.852226,-2.9264426,5.019291
0.26662087,6.3888464,0.44971946
36.873108,0.40922633,1.688629
-21.636055,5.9878163,4.3345037
27.557493,-1.8884679,6.8086634
-8.457542,2.4455853,-3.061828
11.947786,7.3060246,1.1083521
-9.628397,0.8224992,-6.1644387
5.28667,4.399071,-1.7259604
-12.165263,5.9743323,-0.36206067
19.05579,-4.5720553,2.6725416
-22.806137,7.403139,3.8664365
1.6197221,5.8051023,-0.37814233
23.038534,5.667783,-1.5293653
3.9547412,7.7494836,-1.0495173
6.4627795,4.078048,-4.783186
27.460684,-4.639244,2.751046
14.119081,8.881916,-0.86538094
-22.316391,7.0883975,2.6208344
4.847597,2.001566,5.379326
-20.454247,5.305542,1.845925
-3.7977881,7.5371275,0.25763485
7.615138,5.1332564,3.1812916
32.89313,-2.2803574,2.0641508
30.76694,-0.25465515,-0.54599994
-9.967782,8.104253,-4.152013
6.81897,5.539503,-7.2481847
3.1809669,4.7563963,3.2019913
37.80012,-1.4406744,2.2749891
15.933883,-0.22347642,0.43311992
-2.215138,0.19725509,4.71016
27.603834,-4.719428,2.892941
29.511467,-3.1118276,2.1407647
-5.6508665,9.4302,-0.7282145
1.1115903,2.7557933,5.3454437
-33.43841,11.509676,1.9577745
-11.044418,5.5356655,2.4328187
36.916912,0.49428272,1.7085793
19.559568,0.09578362,6.333716
36.846073,0.1554551,1.6795361
-10.525174,5.9106236,-0.17408127
-2.1586185,1.4498478,2.3774161
28.593258,-5.1773825,2.3353999
-18.485249,6.49479,-1.3737172
-1.5395387,9.75872,2.2663038
-11.44776,3.4359329,3.6294408
15.605925,-1.0987127,4.878767
17.865166,-1.3358129,6.207616
29.92606,-3.3061018,2.5692797
-2.7399552,0.47046146,5.1331143
3.1697786,7.008625,1.7885461
13.691889,1.4560366,-0.561779
10.612777,7.0192423,0.9964455
30.580524,-2.0837593,0.9173131
-4.24882,2.0771487,5.5591297
34.725353,-2.4097607,1.5688736
21.816116,-1.5407969,-2.091895
5.937566,8.913167,-0.41133252
-10.127479,3.7913604,4.8416758
-12.98242,5.01894,2.407868
5.0177255,4.7833767,-4.3749485
17.11252,-1.7427014,-3.001966
3.0834455,6.460848,3.3242269
-0.054828525,8.59437,-0.17389067
-2.5542362,-3.4923491,7.805029
-33.167767,11.672444,1.310042
21.77034,0.31319842,-1.4436961
19.409052,3.108012,-3.1165113
4.975068,5.6861243,-6.684007
24.052307,4.3114815,-0.5960581
2.7284155,4.2369323,-0.14845371
-28.004564,6.7791767,3.7306166
19.374138,6.8849726,-1.6753031
-2.5364654,0.55597675,4.231762
-2.1184103,6.215975,4.7787147
-18.491747,5.0225577,3.6060135
27.696894,-2.0765898,6.7566543
29.178719,-4.390299,2.0105205
-1.0291433,8.423217,1.5798538
21.958185,4.8101463,-1.1444894
40.10103,-4.677762,3.4405
17.620972,4.857327,0.6032785
29.737944,-2.4842389,6.132516
-1.8534205,1.1338848,5.399815
26.67966,0.78903943,0.8618811
5.7376385,4.418853,-3.3222558
16.877865,7.458559,-0.46385524
-16.49576,3.3788378,-0.2518468
-21.270058,5.586344,3.803945
16.852741,-1.6343552,-3.8004704
7.2155123,5.0217676,3.1882555
23.781395,-4.569435,2.7219443
-32.96673,11.953473,2.8292422
4.7092576,10.256151,0.20444429
13.171411,1.020819,0.9951067
-8.946137,1.3595461,-1.5120444
-28.217207,7.9212832,2.00311
-1.7530648,4.659635,-4.5839906
-11.693213,7.029584,-3.63531
-11.847846,4.085309,3.1676588
19.09624,4.807,2.2196944
5.8535733,7.905687,0.66962624
0.08303754,6.29751,0.5976906
-33.73504,11.87101,0.106640756
-12.200255,3.8528428,3.4058478
-0.85631555,6.455018,0.803037
29.684471,-4.1442537,2.4726863
-33.539257,12.319288,0.5043015
-10.405222,2.0288708,0.83085245
11.317768,6.7729964,1.3001106
-31.292337,8.504011,-0.42247117
-9.803998,1.986209,2.0910714
17.041235,6.1977925,3.3295202
25.079239,-5.18335,2.2332938
27.384338,-2.2737906,-2.870322
11.548486,-0.19886988,0.024667924
-31.907448,12.400142,2.2430704
11.776502,7.30513,-1.1249245
24.063284,5.5066566,-1.0886353
-0.6419127,2.026493,7.419362
-1.60194,7.454396,1.912277
-15.586579,6.1637187,1.2326263
28.933695,-2.4618604,6.3656673
29.433979,-5.29063,2.3489254
19.218924,-0.69029105,6.629456
14.968986,-2.4559686,4.9848166
-19.830782,4.461852,2.171978
-6.0612864,3.144615,3.7997851
19.801134,3.6102798,-2.8280237
7.421824,10.033601,1.4117479
-34.168427,11.79791,1.198939
-9.700283,0.8441555,-5.927452
-2.6188731,4.242681,3.9795725
17.164276,6.9217553,0.49373996
34.408318,-2.0523493,1.1067274
-21.067652,6.0697975,3.0704956
27.72505,-4.9820104,2.5960653
-11.9289255,4.7051096,3.4403708
35.09832,-3.492853,4.147279
-26.237444,6.325401,2.1207647
-5.03361,1.6710167,4.887001
0.55790675,3.9645312,-6.0973625
-6.603689,1.1898743,1.2401466
-2.6008837,0.93232894,4.665902
-4.925381,3.068855,4.652222
1.593857,8.615693,1.5089504
-1.5430255,3.8506258,-3.2392015
26.69607,5.3009167,1.7233813
22.288708,3.7146952,-1.4547697
14.011419,-7.284481,6.1509643
28.089033,-5.099927,2.9284682
-0.5712815,6.141852,-2.9800308
28.761705,-2.5714285,-0.9455221
4.172859,-0.35142004,3.3356717
-14.029387,1.3960708,-7.346709
13.303482,4.3494773,-4.4914446
-13.641284,3.3395019,-8.436435
-10.28666,2.762424,-4.9701266
-27.374754,8.27937,3.5029423
7.326353,7.2487226,-0.09945729
15.938718,-3.438057,2.431834
14.277976,-1.1588284,-1.8651156
12.022434,0.73636883,0.70158875
12.92127,4.834757,5.2159824
40.773525,-4.9937716,3.6573172
17.121056,-1.0695688,3.8010342
13.609713,6.312637,1.4635612
8.29807,7.851472,-0.08476783
1.100649,3.7447748,-5.8087277
39.18522,-2.7428248,5.160129
0.6224266,1.2679853,8.127037
23.826797,5.33449,-1.69666
-11.507689,4.206688,4.364894
19.151827,-2.212866,-3.9107466
10.575226,5.864169,1.1554567
21.414463,1.4554965,-2.860401
3.0929618,-2.9041498,4.8508377
16.021973,-0.3715118,1.4120549
23.84352,4.997323,-2.044601
12.74952,2.0874996,-1.4369826
-17.558794,3.8968987,3.0927367
-33.523018,12.779462,0.3897855
30.044533,-2.6000123,4.8574796
19.166656,-0.9454741,5.221682
4.5894957,8.068458,0.22288267
-9.995524,8.34648,-4.097621
-33.504925,12.503784,1.8477869
29.251038,-5.061007,2.4780145
1.6479613,6.313221,0.07571138
25.648785,-1.7168387,6.0869517
37.004906,0.5882762,1.7552091
4.439498,8.5810795,-0.8923513
37.413536,-1.3021376,1.4951032
-14.029975,2.1438847,-5.710678
19.516865,-2.12563,-3.7874691
1.0824658,6.3310447,0.574853
-32.86429,12.303586,1.4671755
6.863875,9.471768,0.5298155
-15.65891,6.848488,1.7399446
2.030457,0.727732,6.5473256
31.581194,-5.0327783,2.795353
-32.914707,10.8476095,1.8303992
6.10607,7.591874,0.7951553
-0.5104211,10.029553,2.47341
14.001674,6.195787,1.6715376
25.29528,4.6163883,2.018616
1.043865,1.6944829,8.119582
22.376606,-1.250851,5.904176
9.720056,2.9521167,3.4052176
7.5510254,10.045954,1.6069132
-30.476734,9.740741,-0.31063557
-19.590635,5.580323,-0.7288621
35.041054,-2.7556973,2.320449
16.403284,-2.2819219,2.7056274
27.404648,-2.0085628,6.4859686
29.368624,-3.4164617,3.9371667
-13.824245,3.42229,-8.299007
-21.664238,6.1250114,2.4215527
39.19441,-2.7683296,5.2331433
13.48967,0.40875736,0.36639982
10.21511,7.813543,5.168406
-22.442999,4.8633623,5.418181
24.695337,1.4421726,-2.6985452
21.249657,1.697636,-2.1643806
-33.07825,11.545301,0.0818901
-21.109888,5.5657105,3.4990668
14.559748,2.5724115,5.5098286
16.460505,0.6040184,5.917653
27.293682,-2.087267,6.30105
-2.8280578,3.1528962,4.2414527
-18.793861,5.318045,3.7611935
15.543607,-1.0620953,5.411559
38.21709,-3.0777936,2.9379146
19.174044,-4.593597,2.647332
-2.2678316,3.2713537,4.746972
17.293549,5.1100645,0.4884194
-2.3726242,4.948427,-4.879277
-3.7720497,1.9621729,6.0436993
-34.103386,11.6715,2.6572773
19.617683,5.535552,1.5181605
14.938518,5.5482473,2.4292324
22.309557,-2.727079,1.3585863
-3.0529225,1.1900977,5.4941688
-8.819872,5.6408386,-0.8112522
0.99500555,9.096649,1.2924083
8.397801,4.9190564,-0.19492997
11.259822,6.8145227,1.2911953
36.722725,-2.7350476,4.298764
28.81944,-3.3035147,4.19775
10.814969,7.0560412,4.2742467
18.754776,-0.6130356,6.515234
10.77259,1.9048107,0.09822816
-8.82776,2.1435075,0.9880288
4.385786,8.59696,-1.0254622
-0.2575287,0.9524221,5.4379125
37.257256,-3.2831182,3.7484477
6.6740255,5.402145,1.3617989
28.501068,-2.3659139,6.527458
-0.025492292,1.0784264,6.783969
36.692146,-1.5540886,2.080983
10.708426,7.762479,5.131183
-15.73292,3.6573827,3.1080918
-16.022976,6.1097336,0.8962802
11.653565,-1.8571359,2.906722
28.096037,-5.063932,2.8129995
-13.931823,3.8289835,-1.3380127
35.87011,-2.410613,2.4635801
35.122643,-3.2123034,4.0811515
-0.3293649,0.0637222,5.9670677
-9.379099,6.587963,-0.66347915
-25.276627,6.8025126,1.862193
19.394451,5.7334456,1.3086566
31.565947,-4.6821933,3.4814885
37.807083,-2.3186634,3.405532
12.947059,0.7760223,7.5749197
-10.528579,1.2178246,1.836065
10.862195,1.0684702,0.21738283
-23.114964,7.8765845,3.6051314
35.150116,-2.8212407,3.7236383
-32.879234,9.980613,2.786316
39.25226,-2.6816454,4.095019
12.172234,-1.3183347,2.6559875
-32.895294,10.915681,1.8148327
-10.216046,8.535023,-4.903395
-5.2870636,1.5150381,5.9968343
13.115868,4.0697083,-4.3854265
-1.6105715,9.806109,2.231268
-14.292976,7.6455245,1.3047708
22.049149,0.14567369,4.9482365
1.0119085,0.16478038,6.9758673
39.42294,-2.9017482,5.0152206
17.016916,-1.3553759,3.5770264
-33.521755,10.4861765,1.0290451
15.004879,2.334544,4.62376
5.359798,6.852583,4.4239717
21.615587,5.0378747,-1.2425431
5.471174,4.626026,-4.200724
6.8906035,6.990821,-0.397418
34.359627,-3.7114327,2.2910728
13.086164,6.360336,1.493963
19.548714,4.294918,1.0858805
-32.81058,12.306324,1.6804165
14.851365,0.0201929,5.646571
15.542293,-1.2852606,5.1145477
-32.453632,12.058683,0.08911378
-10.7419,1.2165469,1.7914702
27.6405,-0.10658333,-1.4135138
-0.8405059,7.5825987,1.288929
39.352474,-2.8339224,4.7686887
5.516943,-0.46011433,1.2236454
0.83865404,8.866437,1.0729765
20.123316,5.4022455,1.7204057
16.512379,-0.21125558,0.99643457
31.720379,-4.5966163,3.57438
31.977266,-4.6291103,3.634332
21.809856,0.32082838,4.5263944
13.768626,1.2950429,6.8728843
22.097113,-0.27250132,-2.3262906
-33.592052,12.559161,1.5504487
-32.968807,13.479186,0.34543157
29.661442,-3.8099923,2.3855202
-16.0485,6.1558347,0.8233605
10.229502,-1.8007485,-2.6379855
35.792828,-3.0317278,5.1304183
30.077543,-2.930081,5.3917465
-5.1474147,1.6359271,4.025185
22.645609,-1.3298573,5.91635
-13.947168,3.5001297,-8.2231045
0.8661737,1.5607724,8.025444
9.571957,0.2883193,2.6113117
-3.2805004,2.2829514,3.8580933
14.905581,-2.14413,5.3400474
25.728954,-4.410146,2.7148585
14.890892,1.7314528,5.755966
28.070381,-2.2254176,6.9131165
8.656153,1.3646994,5.287298
36.674576,-3.2381954,3.6759033
37.732563,-1.1523955,1.55288
19.36701,-0.93884903,5.223979
22.679125,3.3373158,-1.2281713
9.383304,2.0595057,3.9373028
-18.910967,4.23844,3.2947967
-8.596779,5.5776696,-1.1423608
34.37628,-3.8836164,2.2517054
18.500267,2.9202907,-0.8159019
6.76365,3.5874064,2.9372828
-20.78613,4.8731627,1.3553035
-32.199028,11.538494,2.2922828
8.975316,5.6390147,-3.2742007
22.179052,-0.7722091,-2.1885216
23.704412,-1.5214955,5.9299603
-34.07955,11.652573,2.361944
-20.006105,5.140881,2.043771
38.225327,-3.2491481,3.2426975
22.286823,-0.65745556,-2.6036737
-19.371025,6.297247,1.0431321
0.04520427,6.1372933,0.478594
-32.316914,10.9860525,3.0182974
11.981935,2.9977856,-3.4465501
-13.778999,3.4254563,-8.349651
30.847204,-0.87006336,-0.12112256
18.039316,2.823158,-2.7587492
21.367569,4.65314,2.5902712
19.227528,-0.28225031,1.3041795
11.344002,0.011410844,-2.1549108
11.971637,0.22075966,-2.431634
-22.58676,2.5286822,0.63296336
29.563242,1.3529596,2.1701446
32.946278,-0.19830717,1.8133645
17.691465,5.041301,-1.733479
0.8686531,2.0792243,-2.2178705
21.400242,1.9494874,-1.4408528
-11.587201,4.3934646,4.7785754
0.5971004,-2.4994655,3.2683108
15.911306,4.0967655,4.622108
15.562044,1.3833089,-2.0609717
7.4638906,3.5727704,0.8504127
6.955537,4.687461,1.2441337
8.713528,3.3042793,0.2519455
9.117037,1.1014605,-1.5502571
11.259292,8.633489,-2.728312
5.7918587,-5.4089456,2.171554
12.371343,-0.25074348,-2.1854286
6.8869457,0.9485,2.19154
5.2016797,2.06452,3.0357723
9.636221,-0.8423739,2.8378086
18.071169,3.9001396,1.3138424
6.1690397,0.626877,0.16573319
13.939931,1.8778515,-1.1578335
-22.168823,2.92882,1.4751065
30.149834,1.1972672,2.3502245
7.2954903,1.817406,-0.77896273
41.093075,-5.284652,0.22884397
29.50881,-1.3281245,4.1265535
2.5639615,4.7882657,4.126237
-21.81312,3.5974762,0.0688575
15.193479,0.57299066,-2.7446268
39.567577,-5.9682136,1.6706746
12.418601,4.115396,4.7093153
8.720887,-5.608151,5.4335804
15.939564,-3.818265,2.3655689
37.511448,-5.647168,4.940065
-18.778826,5.235559,3.5893416
16.700457,-1.6105609,-3.8166645
36.73844,-1.49155,0.81561047
35.98043,-0.83020765,3.3849342
4.936115,2.0703933,0.17999019
21.617043,-2.6428888,1.682365
22.957409,-1.3121556,0.79076135
3.3115733,3.0880716,2.0323591
12.683372,2.5421371,3.9348578
26.147846,2.3518705,2.4751008
-11.767461,-5.5214148,6.656715
22.508886,3.5272043,3.2083583
13.203547,0.64136887,2.2859306
0.09667662,5.4799023,0.13792023
14.889576,2.8481758,3.2429197
4.6172338,5.325878,1.1254019
32.254337,-0.33395368,1.8372078
20.739616,4.014868,3.057536
-1.7951344,-0.7669646,1.1504221
10.878806,7.121144,-2.5293245
31.518906,-8.208263,4.4397793
3.9426599,3.665402,-1.4075065
-33.59646,10.51197,0.300746
16.049864,1.0616521,-2.019151
29.002363,1.8107874,2.1696196
27.466753,-1.0105499,2.9292326
17.949688,2.6080787,-3.4432
24.344957,4.295202,0.38600877
5.5590363,6.0858674,1.0869026
10.763565,1.9516256,-2.4820685
-25.380135,8.535641,0.93842024
0.93931055,3.2856097,-0.32704082
2.4982312,4.3691688,3.271096
4.208741,3.8129637,-1.2425226
10.076896,4.3283772,4.3602333
25.986277,0.18624131,2.288049
21.653017,-0.8890001,-0.013099654
16.930532,1.2432194,3.2314985
31.64273,-2.6177075,4.736823
35.369102,-6.6185045,4.404112
4.286148,2.6183896,0.23548344
19.58266,4.370746,4.272689
11.893735,5.4751215,-0.4610825
-24.141903,6.620703,4.1908994
5.245001,3.8270764,2.7507524
18.92889,-1.058628,-1.8964823
-22.886639,5.377099,1.3730366
18.46963,3.3430898,3.7502198
16.948599,1.4028233,3.327168
26.926098,0.99901915,3.6997073
3.7838233,3.2931108,-2.1903043
-0.25583926,2.4349594,-1.7664105
18.772558,4.7424784,5.312035
29.149172,-1.1120553,4.1524563
23.133528,-3.25472,3.1594234
24.109678,2.3857834,3.6458309
39.604527,-4.2754946,0.6176797
11.412152,1.73279,-1.7237139
2.4151208,-2.1534672,3.6565747
5.749797,2.1719635,0.24571216
37.142242,-1.5474225,0.9011166
42.5801,-5.3249884,1.3021765
10.209404,10.135049,-2.7680483
13.381225,0.33594054,3.8492737
32.533287,-4.639847,0.24980026
30.501322,0.976563,2.5182235
18.381706,3.915895,5.049164
-8.435233,2.162557,0.620239
39.955044,-4.4206467,1.5281687
22.432888,-0.18107945,-0.74938464
11.769192,1.7486264,-3.6475093
19.30404,5.1613154,2.5846193
-0.62674266,4.9341235,1.7708117
37.008568,-2.3288345,1.9016321
41.406006,-5.4217963,0.23252797
36.905888,-5.9797344,3.0308025
19.50138,-0.48994043,1.6022573
15.034895,-1.789281,2.6449502
-0.8291666,7.6613894,0.20668481
41.066475,-2.8975985,2.315206
1.0745974,-4.7461853,4.0929127
20.418734,5.1680226,-3.9462647
28.959831,1.0389975,1.557591
19.461407,-0.7402601,-1.1093388
-8.409148,1.5035634,-0.83743495
-25.107315,3.5045762,4.4376235
23.304089,-1.5688844,1.217623
-17.93308,-6.6638336,-5.2114725
21.13033,-1.1649578,1.8863713
18.95567,-1.9771166,-0.5705434
21.221022,4.2690067,3.1004267
39.88166,-5.2294574,0.28441232
-25.796606,7.272975,-0.45939746
42.445232,-4.025764,1.242541
23.383108,6.2358737,-1.5382699
22.539288,-1.6877693,-0.6318
26.54294,1.6455215,3.1475415
22.14124,1.5703865,2.9697607
14.276183,0.65956974,-1.444737
-0.58221,1.8981159,-3.0525537
4.918515,2.764512,2.4280171
23.69902,3.9053056,-3.1476672
4.894294,-2.2025816,2.595202
18.355179,-4.462219,2.739705
-7.017743,0.6795997,-0.57543415
19.84415,-5.1919436,2.7451308
40.669018,-3.153103,1.8614182
8.804736,2.084702,0.9388334
29.11452,0.32540503,1.1845534
7.727174,-0.10396273,-0.21264738
1.3802837,2.6201015,-3.6126325
12.31729,1.0046101,-2.9506156
25.396345,2.112777,-1.5679543
13.4256525,1.2895416,3.5900736
32.384747,-4.376813,-0.71179986
25.41507,4.902679,1.4716507
14.545322,-1.9794364,-2.703439
-24.839159,7.280819,2.8346398
18.004337,0.0009967918,-0.6392541
35.660755,-6.6155477,4.1117973
18.164804,0.8692179,-1.0192556
3.2701526,-2.5969574,4.8936653
38.105,-5.7009363,5.5344634
19.157839,4.2875657,2.4782715
17.314953,4.7873335,-2.686511
31.562662,-0.9616509,3.8548295
18.382257,3.2658699,5.176328
22.533638,0.10031125,-1.466448
42.263042,-4.4536963,2.079453
37.994766,-5.7224774,5.542902
3.6012905,2.981348,2.0797114
19.73836,-0.71939814,-1.7286874
17.585608,0.3744217,-3.8513613
31.02661,-0.573529,2.2546587
14.974838,0.88020617,-3.0097222
23.205019,2.7009199,3.2386413
9.727059,-2.9342215,3.1147132
-1.8305969,11.76609,2.4928312
4.2968125,0.90687144,-0.15174681
5.6546445,-0.19460297,-1.9993651
27.657475,1.7410574,0.5303969
31.269457,-0.3368215,4.115428
-24.176485,7.0701766,-0.7347242
-3.725879,6.3994627,2.087092
29.512184,-2.4046457,-0.42344618
21.393084,-4.524585,3.1507092
7.2042804,1.9671181,-0.22730307
24.922468,0.7208719,2.7995114
23.783125,1.8177965,3.067273
27.935276,2.83728,0.9973631
5.065499,-0.185856,-0.25230595
3.7791586,1.7436899,2.2682655
23.840162,1.3280008,3.174396
15.384997,0.6629644,-1.0522317
7.343469,-3.3731656,4.285127
33.663082,-4.5278983,2.1299486
4.1172776,0.758477,0.35045716
6.511538,-5.848068,2.027529
20.368923,-5.698343,3.3190343
-4.719853,-0.4342446,2.3839483
-33.23948,10.713537,3.7450643
3.7214942,2.1125898,0.3457419
27.250837,0.723797,3.0561736
10.717451,9.975474,-1.9872267
10.390732,10.421857,-0.86055267
24.638393,3.6899242,2.4309487
21.71316,0.55563176,2.2072554
5.187422,1.4189187,0.68079215
9.845781,1.1657777,-1.5030941
5.173527,5.2266335,0.41036326
17.062592,-0.42533326,-1.3095274
18.966831,1.0561234,-0.5516537
17.67618,-0.2225703,-1.8558303
4.5569034,2.1617656,0.88942784
4.5862665,1.6836907,-2.1933076
14.490298,0.50158566,-0.2681635
19.992033,-0.10865001,-0.29766113
13.008366,0.5824018,2.2714195
-25.896435,5.3092036,4.1802735
8.521392,2.065247,1.8373885
-3.3463845,4.1720467,1.0761956
20.690086,-1.2224706,1.3552518
31.327024,-0.79168946,3.8793771
4.8222513,1.2904308,0.80046654
5.868003,1.9870995,0.09238677
10.220571,1.0721318,-2.6516368
23.68432,2.6167426,3.283405
19.696342,1.4049472,-1.1789836
20.67815,4.001841,6.0802107
11.899648,2.2801683,-5.5597267
23.246672,-3.002141,3.0026057
0.50268734,6.409048,2.5805159
25.511024,2.6147814,2.9936597
39.951984,-4.7111154,1.1138896
0.67649055,11.561228,-0.1565071
14.669357,0.015543951,-2.1527238
12.216801,3.59501,4.570205
29.307663,-3.081548,2.1423714
1.886499,1.0145603,-0.21942103
11.348891,5.844488,1.8060308
0.30565262,3.702559,-0.17527285
26.451809,0.40075135,2.2563617
22.299662,0.19770645,-0.505105
33.525436,-6.987417,5.1745334
1.339835,4.8568635,1.9239686
19.436676,-4.7983627,3.3280573
27.225212,0.4923054,2.5830936
5.066469,2.2257886,-1.6098565
29.686676,-0.14040913,0.6010377
28.082565,0.21984646,1.1529145
16.590322,5.7354913,1.0679737
-5.1174965,-4.0069075,4.3646097
6.1280966,2.1929805,-0.2808154
35.40786,-0.2990267,3.6805215
31.002989,-2.5497646,4.6483135
19.50636,4.426314,4.625272
4.16982,2.347262,1.7216264
28.640558,2.2392068,2.2686145
7.1862154,3.060588,-1.8065139
-14.132038,1.3769419,1.6243659
33.766457,-1.4461743,1.121479
7.5223136,3.0676825,-0.663608
25.735607,2.5401347,3.1328795
5.335358,0.93257374,0.23878096
4.302857,3.9345372,0.26100495
36.151325,-1.2313727,0.5718018
15.499326,-1.0139638,-2.163576
13.5907545,8.470948,-0.08805892
30.070518,-1.2589291,1.3681744
2.2044778,11.639941,1.3901128
15.938257,-0.8166145,3.1898785
2.1093142,-2.2916017,3.8451023
36.267284,-6.178907,4.279009
12.452409,9.524175,-1.9232081
22.68791,3.3681426,3.4210954
0.42064902,6.8372245,2.7103922
0.48704487,2.0582132,-1.9800303
0.30714488,-0.97992957,3.9578686
23.118988,3.5050204,3.3649764
4.6979547,0.54823124,-3.0347037
21.490232,-1.5698043,2.2795787
5.5027633,2.7258472,-0.67945474
4.9217954,2.8715868,2.2655458
17.696465,-0.774694,1.1489836
-18.9932,4.0879054,5.091756
11.725125,8.146353,-0.37544248
34.815845,-6.145499,4.879396
6.389881,0.5052498,-3.0524693
1.0573702,-4.2870927,3.4877188
10.498636,2.9457593,-1.184603
18.527746,-0.4506502,2.1134171
19.084148,0.030204993,0.9300106
-21.975538,3.2480147,1.2160517
28.16689,0.06925865,1.5461465
21.57883,-2.837389,2.016757
21.007278,-7.054829,3.459375
12.568734,0.99348366,-2.1545258
20.858507,4.3701377,3.3310494
35.67667,-0.32043618,3.48845
-27.781685,8.301459,0.5116381
34.465332,-5.268056,5.8729463
17.91572,2.395076,-3.4341543
-4.6949396,-4.1080103,4.5910573
40.096268,-2.5374143,2.304378
27.737494,0.347637,2.3454897
42.502895,-4.3510547,1.4810551
7.5917563,-0.29248267,5.921301
24.104528,1.0651977,3.060991
21.565739,4.8838177,0.8228323
8.9117775,4.4724402,1.4928371
23.214806,3.2546132,3.191337
22.723991,2.3965423,3.4916198
5.124336,-3.4848928,2.2509804
6.0651436,-5.355051,2.2873845
29.585917,1.259506,2.2797167
-16.073835,-3.6411324,5.936589
13.019205,0.40315083,2.4430327
21.850248,3.9854715,1.2413043
25.742931,0.5203341,1.967768
34.79123,-1.1071084,0.5193241
4.8028007,1.4478076,0.24599198
-0.39642555,11.321843,0.6970809
34.658325,-1.3937448,5.00401
7.6227236,1.6003554,-1.7666403
28.352123,-0.7092362,3.517933
29.40823,-2.1847603,-2.0222082
30.771675,-0.26250726,1.4869936
6.8416734,-3.6320665,3.5160346
12.21782,9.025893,-2.7873726
4.3757343,5.1808825,1.047456
20.50486,5.6143427,4.5660224
8.34826,2.3805614,2.5086203
2.6316602,4.5015316,3.6261876
-5.0200315,-3.9767106,4.27823
19.513039,8.689763,-0.36664808
14.387007,1.6447026,-1.0596488
8.114723,3.1266763,-0.45007926
20.25125,4.295623,5.6963134
4.450353,5.48026,1.6910541
6.455686,-3.529288,3.9002578
11.157327,1.7686594,3.2821581
6.398289,0.35251573,-1.0869495
8.183484,3.14783,-0.46641964
40.555897,-3.0890214,1.8429416
32.268063,-3.353587,0.82755274
12.660573,10.559005,-2.2979436
14.612627,-0.60175997,2.7828188
28.401644,-0.21853702,1.659207
0.54724675,3.6556191,-0.58094895
-12.849892,1.6673383,-0.5198364
27.76507,-0.7836441,3.0151045
8.384948,1.0510315,0.2198687
6.1770916,0.78575003,0.23507306
-3.0280406,-1.2714472,-0.81796896
12.341993,-3.6739988,1.6993771
-12.63095,-3.7323806,6.615698
-9.895974,0.9990907,1.7586567
40.259087,-3.7382438,1.6664897
2.5272617,4.658939,3.2479682
4.6257596,5.259379,0.8469164
18.296734,-5.739124,2.8414006
1.1087482,-7.0733814,5.6437364
21.63125,0.11637494,-0.18206343
5.4282923,9.984035,-2.5596998
22.111296,5.4867907,-0.15631934
23.218374,2.0235465,2.5878584
18.89696,-1.7105587,1.4557416
24.879051,1.5321878,-2.8634431
2.9180338,10.284174,1.3965038
-0.25183398,2.513913,-3.2140756
17.629797,-0.5640027,1.606014
35.197227,-4.2480106,0.22950268
22.63205,2.990183,4.3774858
-18.205389,5.527598,4.841383
8.501717,-3.0540636,-0.583512
38.333378,-6.8411107,3.285663
-16.133297,2.2301087,-3.9691503
-19.845549,4.502219,3.5997827
12.235922,0.080687635,-3.5513806
8.83244,1.5180963,0.29606637
6.215406,0.29912886,-0.15070048
4.7039895,1.9651163,0.16611874
27.509777,-0.59266174,3.3054712
36.309097,-1.2217668,0.22961473
21.507174,-1.4227389,-0.6943825
29.308031,-3.1573706,0.12478047
4.087345,2.4389303,0.6261406
30.430164,0.9811163,2.4308908
-3.9954863,6.781218,1.9652755
6.8442245,-4.426986,2.7257533
39.93783,-4.194406,0.6088582
6.9745665,0.540154,-0.96896666
13.103251,2.0848293,-1.2013844
34.259377,-6.9917936,5.217318
16.701458,4.07097,-0.7013356
0.72091234,-5.1766067,3.7000597
6.2562456,6.649557,-3.1364489
-29.146881,8.341852,4.5590773
-2.2022028,0.10298967,0.565871
7.451019,1.0523205,-1.8830523
4.0572643,3.5973778,-1.1153195
4.8629932,5.222582,0.5803728
11.792459,1.7433683,-2.8227859
29.437063,1.4274162,2.0971801
19.098856,-5.586957,2.8272376
20.915245,-0.9730548,1.6271895
4.4850407,2.4618707,-0.73073107
8.362498,1.4762866,1.7435275
21.679125,4.3634415,1.1142918
18.21387,-0.11889855,-2.3814867
16.502878,7.213611,-0.5093173
17.259438,4.271128,4.4218483
22.108418,0.6132627,3.8835783
2.0034976,-14.254387,-5.321563
8.13904,1.1564503,-4.064499
4.499279,1.2418381,0.50403345
37.494316,-5.7372212,4.661636
16.906609,4.466284,4.639037
29.01465,1.6723256,2.1813593
12.012578,2.6086907,3.245973
31.552385,0.2675665,2.1513777
25.234705,3.1693876,3.5533252
30.23186,1.1288122,2.3337786
23.071556,0.15236518,0.34513253
28.737873,1.5309296,1.8694419
40.078144,-2.7653189,2.095891
42.39099,-3.8311303,1.1078488
1.8900994,11.693691,-0.58963794
15.862718,-0.65592754,3.0516107
-32.66002,10.194384,2.9822993
5.750181,2.2599864,3.6375005
12.961897,4.393423,4.8315473
18.147802,-0.10810495,-2.2445295
18.085531,4.7943516,0.83594596
-8.394471,1.9378344,-0.39411983
31.3575,-0.39643565,4.30572
18.377544,0.64838874,-0.91985697
18.581884,3.0999293,5.259032
19.147854,-0.4736258,1.4396467
5.1411533,4.878493,3.1020644
1.497531,11.025019,-0.22514644
-9.073162,3.533535,-0.41424406
25.974665,2.1847198,1.7860961
19.855259,4.5532584,3.7575202
12.027798,1.2680864,-2.7234778
6.4428587,-7.0784903,5.639024
2.0722659,-3.9663167,4.590418
20.639402,4.9016924,4.1609144
6.1198783,-1.0018471,-2.6408098
17.941753,0.27163994,-2.2885106
32.409637,-7.8569384,5.0570517
18.91223,5.3459277,4.3215337
5.300442,2.7188509,-0.6178816
10.90045,10.415979,-1.1225231
8.370893,4.7442403,6.2143893
42.691055,-4.003558,1.8958768
35.052147,-0.052423373,3.6661754
28.878218,-3.414834,3.8832097
25.527023,-1.0732687,-2.0242827
20.502972,-1.2174792,-1.8486587
18.033169,6.109465,-0.21375357
27.480862,1.4501287,0.79499304
8.493677,3.182782,1.3760074
-3.3150759,6.059379,-2.3707902
-0.07232308,0.11178841,-3.6197498
22.320557,0.9614976,2.2080164
4.8960257,0.9361654,-1.8795606
10.022991,1.1987724,-2.6804266
35.146038,-0.06265966,4.105426
0.08444771,0.46842206,-3.99416
36.538025,-4.415533,1.5668367
10.265344,0.26453966,1.032679
6.847522,0.46458036,-0.84656286
9.920889,3.1123405,-3.4513283
24.587933,3.0447676,3.371754
-16.326567,-4.6516376,8.370739
17.646189,1.9613311,0.33474457
16.77287,5.7251835,1.1269449
1.0480599,5.18855,2.5205266
11.278989,1.687464,3.3773127
7.9363875,0.0982534,-0.7792482
18.017952,-1.4328909,-1.2538662
6.939276,4.6334724,1.2486111
-12.879734,-3.5395868,6.348948
37.389404,-2.8608992,0.7772822
5.975133,-4.3711944,2.3550744
2.4273221,4.9369483,4.2016864
-24.880737,4.3709545,2.472461
-12.258526,-5.357766,7.3144283
4.0946794,1.3801391,1.6059675
22.210121,2.166446,3.3527117
20.644594,4.0049286,6.0778384
15.327265,0.8602886,-2.320484
42.729607,-4.0650077,1.9441204
29.603836,1.4947277,2.171395
16.181416,4.615389,2.8588789
5.2628784,5.484646,1.1562605
5.6320763,3.7905161,2.5008576
-1.6857171,7.2220874,3.2372224
-29.009024,5.505088,-2.217099
-15.773612,-4.8729067,9.026097
21.917145,2.5001779,-4.9441996
20.41557,1.3867279,-5.3218603
-29.062592,6.0819473,-1.5540463
8.6695595,4.48176,7.035518
5.7888,4.6706157,5.9709425
39.82543,-3.1055193,5.1057553
-11.789669,5.213932,3.4271474
26.695866,0.004615442,-2.378822
25.68687,1.0358858,-5.4415708
6.775698,2.6363993,6.1926117
21.887968,6.0240417,4.052698
4.127768,2.7094672,-2.1264966
18.92511,-1.6572791,-1.2362663
-30.742466,6.4039507,-1.7340655
27.735767,0.21165632,-2.6283743
19.472626,0.8773896,-3.7485294
6.6844053,8.649905,-2.7587094
-14.781415,-10.905135,0.52186793
12.379015,6.912481,-1.8152689
26.388937,0.28752205,-3.5805702
32.795727,-6.797367,5.4291472
6.3571944,6.8625846,-3.470305
1.6236924,-1.3744842,6.229274
26.206173,0.26469034,-3.4760673
-27.469547,8.1179495,1.5996901
25.797752,-2.3568747,2.1743162
-31.02697,10.658952,1.1628416
13.160966,-1.1697009,6.268518
22.538042,4.8056893,-4.576795
-27.261261,4.7521095,-2.902177
12.688467,5.263328,-1.4225135
-31.118681,5.963187,-1.881674
23.882978,-1.5183693,-3.5606275
23.178526,-1.604947,-3.159754
9.575705,2.4148862,6.698424
15.150673,1.8366629,-4.3368278
17.327723,1.7301598,-3.359189
29.681564,-0.7649052,-3.5419707
27.591202,0.090300605,-2.3793163
8.986474,5.428542,-7.502174
-2.251211,4.413387,3.5131047
-25.477346,6.733359,4.7456555
10.2724085,2.0668902,-0.85055614
19.125532,6.9166365,2.8303514
11.475024,3.4566371,-4.1226635
25.842176,-1.2219934,-3.7713597
34.332283,-5.2894893,5.7879734
14.251567,6.4173627,-1.6438991
23.404987,-0.47252575,-2.4688954
24.1831,-0.063315295,-4.3630347
-30.516949,5.743643,-2.024998
-30.476854,5.9474015,1.0085629
-27.195484,8.745193,3.0246394
-17.86281,0.7341602,-6.90195
4.9179835,-1.2025151,5.317268
39.6449,-2.985287,4.894258
21.677011,5.272826,4.942784
-11.715647,0.40494168,-8.881649
-25.40862,6.7018313,4.574908
20.299952,-0.10586509,5.971687
-29.792439,10.753084,1.6938785
25.574205,-1.4681542,-3.4675567
7.432357,5.2811427,4.087741
20.878378,2.327095,-4.8346786
9.700352,4.3793855,6.655655
-23.56733,4.388816,2.3274796
13.010212,-1.2258797,6.2598195
-14.781634,-10.905017,0.521723
20.967937,0.9278177,-3.5037596
-11.124103,0.17288147,-8.135736
8.669139,7.6673646,3.1780872
24.074738,2.7762156,3.001139
-31.28452,6.018491,-2.7389598
21.48563,2.322191,-5.392566
8.248689,5.373433,6.545057
9.638697,4.0142355,5.9641857
21.47113,2.0553977,-5.7834015
21.274326,-1.63857,-2.8654487
-20.08823,5.962268,5.22342
25.775702,-0.6747991,-3.6271975
5.402992,7.9947705,-1.9409735
7.4428535,9.199831,-3.4590578
-16.19717,1.6975907,-6.8663816
6.1847496,3.9377475,-4.4486394
12.951046,3.010625,-4.891687
5.2950277,4.7697625,5.749832
5.879082,3.9471614,6.5654464
12.039233,-3.5185828,6.139033
10.389152,0.47286844,3.9273758
41.02478,-3.8590333,4.5956783
8.476845,4.3141937,5.6813664
41.93308,-4.4019003,3.5308363
14.058577,0.46725973,0.12794049
4.624427,7.9034653,-1.559699
20.80536,0.95404696,-4.394349
18.260544,-0.6934052,6.541294
9.991841,4.4992976,6.5176682
20.427122,2.5595026,-4.1945014
-2.518778,-7.6654234,7.5730386
11.132011,4.34832,7.3392525
-10.079316,-0.07748563,-7.8309956
-29.866488,4.4910474,-1.8115703
-27.520933,5.242524,-2.5206065
5.6502447,4.755345,5.6364527
-23.173006,5.605436,2.9764655
7.5179424,8.862136,-3.9186852
21.756155,5.4616594,4.951906
26.60378,5.7778907,1.7880654
4.4943023,1.2537115,5.011196
18.838268,4.6066,2.5946622
15.09536,-1.473099,1.227661
14.015628,4.7064104,4.9055357
-1.9134742,2.545947,0.13535818
39.784313,-3.027245,4.8802447
-28.785175,4.2607207,-1.0766045
-2.2954915,-8.218156,-3.7808223
20.295937,0.9281084,-2.9075098
-14.781012,-10.904343,0.52175814
-27.888296,5.231809,-2.3747396
24.819769,0.22711536,-3.6385953
10.918254,3.4507606,7.0074425
-30.023584,6.0069,-1.8784043
40.914116,-3.8492532,4.862759
7.8791766,8.5809555,-3.6879249
-4.359234,1.0608958,-1.2963521
21.965807,1.002307,2.83507
27.732916,-1.0485005,-0.40899912
19.522219,2.8227766,-3.2809975
-16.296839,1.635368,-6.7473564
6.166958,4.2758594,5.814618
-2.5159588,0.48779607,4.9067492
26.515282,2.5219033,1.7771039
9.346595,5.7022953,-7.235143
22.819407,5.5677013,4.439747
25.873978,0.5730051,-4.319238
-14.90545,0.6607124,-5.8954244
13.887008,7.1748476,-1.6231377
9.033281,3.6054904,6.00399
1.5376114,3.1656554,-5.590631
-29.477617,5.5254793,-1.919609
9.952402,1.755706,2.8049095
13.845495,2.6862152,4.863397
-30.88847,5.7412705,-2.0171006
2.9790113,-1.2652241,-0.760146
9.37268,4.0691743,5.762103
-12.4850025,0.038548898,-9.84768
28.04068,0.0064114137,-2.6845872
25.426762,0.8168334,-4.487867
-23.413267,6.3908143,4.1594677
-14.778414,-10.904074,0.5214006
29.028976,-1.0415993,-0.8513957
25.227596,0.73664623,-3.890948
5.504552,6.7496166,-3.0901542
0.62283266,6.4637785,4.099614
-18.511591,5.531583,5.7666054
27.986742,0.021826992,-2.6995013
9.6142,3.9164436,6.1916337
-10.758174,-0.03432923,-9.728328
4.639681,8.107864,-1.1900129
6.953843,9.345076,-2.3014035
26.102003,0.3712295,-4.6637774
21.805819,5.3787093,4.626182
16.926626,4.109982,4.497687
-29.153477,8.541496,2.9533489
7.571237,7.388263,3.247421
17.68097,5.384491,-0.83148533
11.427674,0.9059994,4.952023
11.008501,0.4449736,5.0185122
10.809475,3.8510633,6.843232
-30.792395,5.7321153,-2.380142
4.171246,0.9817137,4.2449293
19.615034,0.53756636,-3.598146
7.6107974,7.554393,-4.861228
11.298267,4.5202985,7.2117977
23.062473,4.484425,5.2618065
12.205764,-0.68409735,7.348768
22.828121,1.3812158,-4.818545
0.2437542,6.1812115,5.12244
20.454294,5.2098174,4.1905894
24.982561,-0.8329166,-3.9597456
17.661167,-1.0522177,6.2740955
18.36206,2.0443075,-3.997502
9.380457,8.988878,3.900628
-31.208492,6.214005,-1.8085481
-27.099344,5.3714724,-2.8597546
13.384373,1.8740048,-5.8760667
3.9991407,-1.3330084,5.726083
-2.358995,2.1991792,-0.08919354
21.208794,4.5472074,3.8113656
-14.783141,-10.9049425,0.52197784
14.519312,2.9654825,5.661206
32.66188,-6.6253448,5.5693464
9.406394,4.635298,6.428666
13.122088,4.9271407,-1.6514359
1.6601474,5.5011964,3.9660084
23.248266,1.0169103,-4.42617
9.559967,5.5821514,6.217211
-16.141752,1.7129775,-6.7914424
-29.591946,10.07787,1.7850864
16.495218,5.0908494,-2.6633873
2.75224,1.9442551,0.38845935
14.549292,0.85102874,-3.2310898
7.809882,7.3824525,-4.0686665
11.217304,4.296737,7.4185348
19.075798,6.514248,3.2742417
42.48687,-4.928999,3.0886354
41.373573,-4.0656366,4.313548
29.630646,-2.330825,-0.40090132
24.59414,3.676702,3.9931545
23.850948,-4.0137744,0.61474454
18.274242,1.0277827,-2.8950849
-0.7277891,2.525654,0.8922175
-29.316711,9.629997,1.6107087
8.950643,7.484528,2.8694417
19.325743,-0.5117345,-0.6709878
11.0330105,8.477723,-1.4392164
7.2894707,2.218077,6.133119
-19.980986,5.9259143,5.338767
-27.921034,8.964191,0.44642016
26.951427,0.16233404,-3.854952
33.336243,-4.3304253,2.7668464
-1.593128,3.27515,6.6760178
21.234968,3.4810975,3.4664967
9.242719,2.756337,-5.217404
11.74299,9.9615135,0.74390095
27.673672,-1.9636207,6.863363
18.91439,-0.3645613,-0.43655777
-28.87733,5.554246,-2.1074493
9.09486,3.779645,0.739346
25.764143,-2.7263484,3.6338203
21.849112,2.1514266,-5.0310707
-11.587233,0.41985047,-9.053817
26.354193,2.6642973,2.1980362
21.61188,2.8011434,4.282184
26.18153,-4.034241,1.6313709
0.82719064,-2.0888064,-3.410399
0.73607683,5.58242,3.780066
33.018166,-6.46666,4.6932726
-27.57499,8.079446,1.6013013
15.149011,2.829782,-6.4935083
19.506754,4.906445,3.9596336
1.2384491,11.0239315,1.7858527
-24.691343,6.2953515,4.7306542
10.200322,-1.2823122,2.1731377
11.014349,4.325134,7.7209125
29.460375,-2.059284,7.9651966
-10.925236,0.040715463,-8.192061
-26.539177,4.3570175,-2.2721598
6.9080963,4.596379,5.9604506
6.0590105,6.995645,-3.350747
7.8912344,8.735038,-2.1484444
22.694784,0.034564577,3.8923912
-28.17205,5.2713466,-2.2896008
42.183758,-4.5036287,3.0859716
5.1391582,-1.6799023,-0.7119102
8.813361,5.173078,6.01244
9.007362,7.7064557,-3.6517591
12.409364,7.9516964,-0.99246573
17.25985,4.8802876,3.172149
24.442993,-0.8630149,-3.6684215
-1.5586036,3.6146321,-3.365956
-14.780941,-10.904999,0.52156067
31.353403,-8.374509,4.3682556
-11.606074,5.863381,3.1198685
13.291396,2.504123,-6.1383667
2.7324743,1.6910641,-0.18359609
19.57294,0.6285986,-3.4595654
9.853839,2.149373,-0.62463444
7.12436,6.3344126,4.6874766
41.86038,-4.59183,3.8345788
41.048164,-5.1470127,3.6920817
-12.455023,1.9005512,-8.744257
3.1428819,-1.3154821,-0.7931863
41.024105,-5.042524,3.799316
19.190624,6.7816434,2.7439144
-1.5376916,4.7040596,-5.704293
1.6403074,4.7068934,2.0381463
22.966858,0.31111214,-4.22216
17.710098,4.1286335,3.5082037
5.71664,4.6041985,5.425823
1.1137716,7.429294,0.24800208
-0.16520973,8.329714,2.255676
21.772505,1.0202559,-4.064223
0.46201482,3.3893821,5.3891673
14.603215,6.3078847,-1.5576813
19.63639,6.0193825,3.860489
-13.363827,3.0993795,-8.574007
7.5018835,10.172905,1.7067864
9.204135,5.1434774,6.417079
-14.779751,-10.903392,0.5214463
22.474142,2.4369214,-3.4825578
19.963854,0.06847848,6.244359
12.504802,6.220535,-2.2575812
20.601725,2.8468602,2.5146163
5.18245,-1.6597936,-0.8458902
18.338345,8.61238,1.6652611
-11.493027,0.28142923,-8.998725
-31.449867,6.4324827,-1.7477597
20.960493,-1.4316784,-2.6556919
29.385315,-2.3696015,6.857703
11.63251,5.5361533,6.5047574
-29.972017,5.7478647,-2.1074579
30.030346,-0.84907895,-3.7808669
17.550383,-3.12494,1.8336169
3.9972167,8.748183,-1.1008515
15.963203,-13.782159,-5.1780114
-20.129938,6.6820827,4.4824452
5.455069,0.5698087,0.84995806
14.401794,8.866154,0.29052722
-25.246693,7.653096,4.3241053
1.1623883,3.7618303,6.165051
17.84958,-2.0824833,6.3511367
24.62892,-0.41306472,-4.989633
4.903984,5.7095957,4.549885
26.211752,-0.3185608,-4.2824063
23.091095,4.212189,4.8790975
-25.797787,7.7713995,1.8541641
41.90087,-4.57978,3.2196975
10.679383,4.215239,7.276676
17.706356,-0.61786747,2.0524976
6.284535,3.6690056,6.091475
6.582625,4.242951,5.4470053
38.070637,-5.4305763,4.5608683
9.774002,5.2755213,6.3698864
6.5766897,7.6648316,-3.1160471
19.560305,-1.6465743,6.7572184
-14.833362,1.5360825,1.4120481
7.015574,3.571379,6.1070733
20.125608,2.4936771,-4.0226526
20.4217,1.6870108,-4.9526067
7.3455687,2.1872692,6.3120008
24.51373,1.0497377,-4.4594426
32.0646,-2.7339,4.5397673
29.221373,-1.7235358,7.349154
27.412243,1.0415918,-3.034915
-30.767952,5.8756366,-1.6984231
22.263012,1.928588,-4.5818377
20.0225,3.489029,2.5165317
7.1925054,4.215926,5.7219806
7.526991,3.0824783,6.106106
-27.456562,5.2233887,-2.5638123
21.850847,5.6988134,4.241508
3.972113,5.4943805,5.643603
-11.921967,-0.45927697,-8.049911
9.644207,4.229463,6.155697
-29.945995,4.126299,-1.7703459
1.9204438,3.9833634,4.8166738
10.5956545,0.67388755,5.0841117
-27.820646,5.2418375,-2.4053295
-30.20367,5.9116054,-2.0515592
4.5293145,10.00756,-0.173074
6.83362,3.2884302,5.925057
9.623566,5.873523,-7.2477627
-28.634151,7.137269,1.5165604
25.274254,0.73597336,-3.9840653
28.631445,-2.5565958,4.798957
25.7738,-3.299265,1.0773057
18.906885,1.134075,-3.826814
27.13065,-0.010216611,-3.5167708
10.054361,6.6819735,4.225574
18.183485,8.658115,2.2017114
-15.805986,1.5973861,-7.792321
41.02548,-4.9253683,3.9556386
16.71485,-9.074021,3.9663813
28.327919,-2.3087327,7.4899735
17.828524,-2.0055795,6.5218782
28.01336,0.014960397,-4.316933
7.393255,2.6572487,5.312381
41.656586,-4.234259,4.3938165
-31.046144,6.852684,-1.2579433
9.896091,0.054130267,3.6973755
20.825394,1.2340914,-4.278109
-26.546019,9.0888405,2.036467
25.40447,-0.9556073,-4.2328706
2.4879673,1.5413486,-0.25851038
25.87024,-2.6677687,3.7580526
15.986325,-13.778843,-5.1821027
-3.3365393,6.0005684,-2.2545316
24.043463,1.1942698,-4.307904
13.74024,6.566599,-1.7596688
29.687218,-0.29049054,-3.4772124
18.996954,0.9155867,-3.5836492
26.654104,0.13063997,-3.8109689
42.735046,-5.3311076,2.974078
20.613842,3.474777,4.587604
-29.843792,8.744038,0.79511166
22.662188,-1.9187913,-2.97053
29.83376,-2.2301917,6.6473827
12.344383,-1.7637858,6.1833687
11.963462,4.6043963,6.732005
-30.425169,5.8218975,-2.3383772
41.386337,-4.9038105,3.6745076
24.695652,0.27035177,-4.3638563
12.141925,-3.3727288,2.1770687
22.222555,2.0380187,-3.8915823
2.7185512,6.3772283,4.8525844
11.748646,3.889276,-4.3107767
41.560093,-3.776423,4.5759215
20.679676,-1.2924691,-2.8543305
28.405087,-2.4658854,7.800139
21.229101,0.6492929,4.374804
22.355352,0.25755167,-3.3895695
28.0052,-0.80151033,-3.1514215
19.874474,0.58660144,-2.7442257
21.1755,0.9304116,-3.073483
11.220863,10.053658,0.8721783
3.919979,5.535847,5.660903
4.992479,8.718973,-1.4180131
11.072202,4.470825,7.7183323
-14.777161,-10.903672,0.5214301
-31.152834,5.97567,-2.480277
7.237957,6.2331624,4.746266
41.160892,-4.979893,3.5783916
8.756093,5.657465,-1.8907508
-27.828053,5.2251344,-2.3585694
-16.572178,1.6120397,-6.7171707
-17.03862,5.870529,1.2262115
15.443285,2.4962401,-6.5904036
8.850126,5.3563128,5.5324883
12.539003,3.3358505,-4.2312226
25.22308,4.685905,2.026565
24.083548,1.038148,-4.5276875
25.054016,-4.7192864,1.6198723
5.974841,4.5238957,5.465898
-17.904612,0.9876753,-6.7833934
-27.884453,5.284487,-2.3947992
5.9615183,4.667837,5.987073
-26.489637,4.2081866,-2.351087
-29.969105,4.840982,-1.8706775
-2.5243318,-7.6699986,7.5799522
11.555647,4.4880023,7.3950396
11.459032,5.4584646,6.5579596
21.1699,-0.18557087,5.460647
20.741432,5.759934,4.619177
20.959805,5.0301757,-4.5555444
-29.819729,5.7399187,-2.2990897
24.299448,1.0822328,-4.308436
42.39899,-4.810712,4.016687
22.059826,2.1756814,-4.7697396
14.9179325,6.980969,-1.5364243
27.10477,1.5128174,-3.2076576
24.974726,0.055780496,-3.7675781
-15.735538,1.7245384,-4.3878536
-26.365997,5.3553677,-2.803103
9.471264,5.8134427,-7.3218503
25.48591,0.58429027,-4.4987288
1.290744,0.48936328,6.1671505
11.320359,4.862318,6.715962
31.497732,-0.29117373,-2.0766244
14.9583025,1.7518581,-6.888048
-6.734966,2.6405718,-3.2731202
-25.99242,6.252541,3.3374746
27.892984,0.10552016,-3.5938287
22.49038,0.02185275,-1.1658902
22.599981,0.5922806,3.5540378
22.161465,1.0873177,-2.62705
25.944641,-0.3326829,-4.7733297
-27.680931,9.09802,1.9343008
-31.318539,6.125331,-1.8509446
-14.780536,-10.904232,0.5217429
-26.948578,9.06886,1.3475617
-11.082154,-0.17839006,-9.127872
-19.056562,5.8815155,5.7704816
10.857903,-0.0027898885,5.3364387
9.971119,5.24509,6.497967
13.649382,-1.1308019,-1.7336098
-23.515696,6.3722143,4.160175
6.947086,-0.36456394,1.4510155
26.429176,5.893325,1.755937
24.445887,-4.2377753,0.5086907
9.4853115,3.822342,0.8208265
-14.779973,-10.903751,0.5215626
28.036995,-0.23119065,-1.7060927
15.971731,-13.781216,-5.17976
18.37461,4.9017715,5.155617
4.171167,9.1213875,2.112317
-1.1531645,4.299089,4.718262
7.517176,8.946394,-2.8419514
40.88411,-4.975376,3.8716834
-21.611603,5.926877,4.4840794
25.479988,-1.2308481,-3.4174962
-2.5401828,5.78445,4.294164
-27.427559,5.218083,-2.5734792
-8.807039,1.8077893,7.7860365
13.389088,4.237214,-4.5157056
19.283058,5.3345633,3.5067484
28.419018,-1.7993354,7.164317
13.255753,3.1218708,5.1222486
24.746725,-6.28024,4.103597
9.81643,5.3147655,3.7457154
-30.230738,5.7804294,-2.3067212
32.930035,-6.4339333,4.977643
-18.092138,4.190594,0.93828034
-11.812157,4.0172577,2.127762
-11.385761,0.4237229,-9.318906
21.42481,1.9999684,-5.07246
20.497707,3.1469169,2.840751
22.307594,-2.1251678,0.91119826
8.653645,3.4691546,1.155935
10.105273,-0.5191075,1.6671584
-29.457176,7.5807357,1.6026466
37.629208,-3.2854412,1.8711548
18.163778,-1.1067208,5.7208533
27.744219,-5.0389247,0.79338986
35.827312,-2.750241,1.6584947
35.89753,-1.9841651,2.774731
37.336548,-5.3953586,1.9021533
36.832954,-1.9062724,2.682
-2.0345159,2.8582242,-4.690294
25.228035,-2.6626582,1.7537992
35.332703,-2.004578,1.3509531
27.18041,-0.0922345,0.45210427
32.999577,-1.2543292,2.508729
22.39888,-2.2066865,0.337309
33.55284,-4.169912,2.6796682
25.068453,-1.0949223,-1.8846219
26.206032,-5.187315,1.6282012
26.24646,-2.4978628,1.7684951
13.010566,1.9124305,1.4110124
4.3487015,3.1864824,1.5108259
37.456554,-3.953201,2.1541069
33.740093,-1.8286016,3.350599
22.402464,3.2326283,-3.9326384
28.477755,-4.1453905,0.61379987
-28.287027,10.196867,1.1931428
9.275219,1.7940153,-0.765761
9.911133,1.455597,-4.560469
12.060157,0.035298005,-2.4356658
33.84538,-2.4350164,2.0122473
15.320344,-1.817329,2.4374127
-29.642673,10.349638,0.41043288
14.489829,1.679351,-6.396194
31.498001,-1.164375,0.42852515
16.878147,1.3299674,-6.4649954
18.8801,-2.9989212,-1.796031
-19.315308,3.6661794,2.1760452
20.102077,-2.0016015,0.084920354
-4.500203,1.4956034,4.5909586
30.735912,-4.068486,0.47144532
-32.24947,11.99145,1.3347532
13.03923,0.59301096,-1.1895669
12.381332,0.92128384,-5.1247597
-4.1460943,2.6289036,-1.9468079
6.5198245,0.48225296,2.8339915
23.577599,-0.80950457,2.7757208
23.756632,-2.8020494,1.6956202
32.013836,0.31723472,1.2184246
4.5773473,-0.09417416,-0.31842238
37.050793,-3.3086584,2.7044559
30.89941,-1.4648436,-0.99689215
15.697609,-0.17276578,-3.8235977
12.336648,1.9995451,-5.253149
35.638725,-3.6695728,1.8990651
25.399965,2.820572,3.2168128
10.125484,0.53352386,-0.6903789
37.04525,-3.7123313,2.3796496
14.606877,0.5439043,-0.6226003
28.58359,-5.0286956,0.67982125
34.76946,-1.9048586,2.9837396
23.701637,-2.6575181,-0.3039763
11.981066,3.498239,-6.2795196
41.83625,-5.49402,1.7213072
-31.056473,11.2694235,2.0530713
23.113207,-0.2067365,0.370374
17.124514,0.9010104,-0.10003515
13.422717,-0.06867202,-4.887304
30.300787,-0.8056406,1.6331036
39.989765,-4.6781225,1.3108189
25.785366,-2.1191096,1.9872965
-33.00116,10.469542,2.1938095
20.984697,0.7786875,-1.1316803
-1.8398663,-0.15185633,5.2995696
13.776408,4.920369,-0.982969
1.3900853,0.6326001,-5.1379476
35.848072,-4.166224,1.5527643
-7.4997816,0.4206719,4.7507286
29.81892,-2.3192341,1.7932733
24.376984,2.2763155,2.7065144
33.551144,-1.4826502,1.8227057
29.81909,-2.718344,4.790405
29.416006,0.45373636,0.07455313
3.1466851,3.0413067,1.1200116
29.170038,-2.6387782,-0.23874322
36.175102,-2.0838537,2.0069773
20.638271,-0.13225392,-1.840393
36.562794,-1.6812994,1.0356525
15.033241,-2.2084048,2.3411274
9.315669,0.3838766,-2.4100502
-31.116152,11.24268,2.114159
29.967152,-4.8106503,0.37678686
33.64702,-2.4688733,3.1126902
27.615705,-5.867267,1.2515416
33.029423,-3.3638277,1.2116393
32.600864,-0.3933037,1.8161145
36.843246,-2.405749,2.4259458
8.680769,1.1084865,1.5792646
35.10941,-1.9568678,2.6419086
24.165173,-0.6474227,2.5065808
27.227028,-2.02711,1.5685937
28.105352,-1.3205948,-1.0270444
22.61663,1.5929021,1.365049
29.440857,-1.2046139,1.2887255
-28.488937,6.9950013,3.892767
24.629452,-0.29594427,-0.08854781
-1.6811337,6.8634157,0.36351183
23.546387,2.1711411,-5.8697863
28.424774,-4.148721,-0.60840577
16.684267,-1.1303055,0.12327825
24.055807,-1.0052207,0.8835881
-17.28125,4.1569824,2.161158
6.880573,-0.64606595,1.1953887
15.858258,-1.1095233,-2.3125534
14.919573,0.0066129137,-1.7876502
9.825072,1.236729,-4.598445
24.644949,-2.1376767,-2.126592
25.68825,-2.5619893,2.0898132
31.863749,-3.633088,1.0913832
8.033944,0.111356,-0.17411296
34.15111,-0.9725532,0.15224391
14.666918,0.04290496,-3.909044
-29.55308,11.785057,1.7720289
32.6889,-4.4678283,2.0320609
20.227167,-0.53645074,-1.4065353
35.149235,-1.555541,1.1740254
8.152453,2.9773335,-4.75193
25.210274,-2.7297626,1.7414864
27.146645,-2.008752,1.3808153
13.131884,0.4197072,2.975575
21.906923,4.69719,-0.86580485
0.69290423,-0.3453665,-4.474211
-2.6473718,-4.192847,5.5510364
38.028023,-2.8072689,2.3764653
-28.586893,8.630867,0.7336254
-30.379501,10.313782,3.7106445
28.903683,-2.0676641,0.6381247
9.81869,2.9846675,-1.8171269
30.750105,-4.789057,3.1778007
8.220723,1.9475352,-2.1281347
-19.135086,5.3232417,0.5090339
14.460623,0.029968454,-2.2479215
33.989716,-0.97164196,0.32707897
-31.225206,12.404214,2.629565
29.388765,-4.407383,-0.646891
-31.223057,10.358841,1.5495017
-31.389627,10.71119,2.7244585
4.4994645,2.4274495,0.53304774
12.112946,3.5660598,-0.5986445
20.508932,0.688146,-0.15395063
1.5074376,6.3981876,-0.22613063
-9.199,1.7297609,-1.5657607
32.988194,-1.7173729,1.3751466
28.73433,-1.0795845,-2.099954
-8.765437,2.912979,-2.5013516
8.266863,2.1162407,-2.3152075
26.08788,1.100738,1.1176826
12.111216,-0.9618632,0.11245581
17.411661,0.54120964,-0.05814836
28.009722,-1.3649206,-1.9101877
32.193253,-2.6899838,4.192466
-3.8934205,3.4875162,0.01214462
28.528433,-3.0366304,1.893792
18.011261,1.6974488,-2.5406208
35.34868,-2.3763406,2.83386
0.7508243,6.0939364,0.52467495
24.481352,-1.5878856,-3.0107458
29.240438,-0.40457743,-1.7620975
22.981148,-0.33491412,-1.3764191
-24.24381,5.8544254,0.043779325
-10.7146845,1.2738919,2.0984998
4.4801507,3.0383842,-4.133165
-16.834469,3.227335,0.016097527
25.939104,-3.4740791,2.833157
9.389807,-0.3831302,-2.1573005
29.72119,-2.8862398,0.7326966
7.8729215,2.4173486,-1.966633
34.40886,-1.3121223,1.4071538
27.461718,-0.9648567,-0.64557624
8.341535,1.4051318,1.8783667
-24.258125,2.1926792,5.4176474
23.898003,-0.29586384,-1.3124497
10.055729,0.5595021,-3.9878867
18.749048,0.49973565,-4.8799043
-30.036095,10.623452,1.033531
13.326276,0.9338112,1.3678398
30.99204,-3.9376342,0.7244071
9.326389,1.2150238,-0.7574382
36.713383,-1.829328,1.9619613
0.951005,-2.867202,2.2119205
10.246685,1.6072587,-0.97156674
3.697603,2.7593205,-4.507681
38.813717,-3.4638157,2.3172984
8.829627,5.1433706,-1.029604
28.398014,0.30934483,1.588285
36.41199,-2.1245096,3.6180384
-33.11098,11.090517,2.658729
23.78977,-0.7589783,0.4375276
26.645775,-2.8973794,0.1560171
9.976844,-0.10681975,-3.365313
27.025658,-1.1897795,-5.0524955
4.3724637,2.2426898,1.1468676
32.32768,-1.8289509,0.4537789
36.377346,-3.7227612,1.6685311
39.157566,-3.1255386,2.049608
26.480015,-2.8883176,-0.25764582
32.51175,-2.732144,1.4063194
14.288295,1.7050908,-6.4828744
-31.331556,11.223396,1.7187941
12.094724,-1.4197677,0.5125943
35.08742,-2.8601189,3.3910983
-1.1759951,0.036551785,-2.2249334
34.998505,-2.682941,1.9738232
22.591629,-0.44811332,0.2141254
23.461258,2.614965,-4.865332
31.984577,-2.8960743,1.2888324
22.714903,-1.0329738,-0.101375975
19.581972,4.138428,2.695632
25.376549,-2.310187,2.0085473
33.355408,-0.942236,-0.6885451
33.74304,-4.3948593,2.3561056
9.068272,0.91582537,-1.7775657
23.829191,-1.7454599,5.919662
25.213497,-4.14662,1.7517341
8.086566,-0.25033528,0.56987315
16.95702,-1.6895998,0.17359483
19.71952,-1.304921,-0.966112
26.252247,-2.2061243,1.9362353
-32.957886,11.976391,2.1201143
36.593113,-3.279358,1.7346001
12.97782,0.44859034,-2.0850663
41.61437,-5.4795847,1.508855
12.652347,5.1232615,-1.4651307
9.421722,3.7278826,-6.391838
-31.822157,10.192626,0.6310215
-2.652798,2.0646267,-4.7904277
31.134699,-1.9909819,1.5711961
22.713137,-1.4151486,0.04513469
26.00503,-2.2805107,1.7770368
9.717079,2.1475196,-3.2003622
0.8804244,1.9648297,-1.3999016
26.406776,-2.6640944,0.31195745
-5.5434732,3.861575,0.3950453
32.88449,-2.1633725,-0.49398524
27.582897,0.20437582,0.5539913
39.21387,-1.9353617,1.9784794
24.37624,2.2332897,2.464452
24.724667,-2.0650446,1.7668551
9.989196,-0.91171664,0.37095296
1.7290688,0.48675564,5.1034727
16.878553,0.22170231,-1.4541385
24.294039,0.43930507,1.4829897
38.219074,-3.8598835,2.4439564
7.4963427,3.6190588,-0.15787677
10.211781,3.696922,-6.676606
-21.779257,3.0527651,0.7722893
16.40449,0.7073382,1.0482582
-10.643231,1.2669077,-1.2147021
11.947753,9.3710985,-1.0474888
-28.970942,10.905315,2.1465278
-10.468047,2.2553785,-2.0792608
0.31568718,5.580618,-2.0643027
16.232485,-1.463698,-3.19434
36.740776,-3.4107995,1.8317702
24.356964,1.3870219,0.9715655
-0.71996784,-2.9089057,4.362135
32.799282,-2.1487837,-0.49889955
24.598007,-2.1520305,-2.137749
-34.094128,12.058607,2.4645426
21.128351,-0.71471643,2.0318701
21.783325,-0.035539605,-0.31580004
15.997788,-1.2426552,0.53647316
7.590829,1.5816863,-0.37412503
0.8667279,0.8546037,-4.769963
28.647808,-4.5453334,-0.16439813
10.262133,-0.018508216,-4.033675
36.848633,-3.3144803,1.682808
33.35326,-1.4630936,1.812874
33.18065,-6.8425174,1.9320124
28.578476,-1.2248528,1.9998127
25.960138,0.35640776,-2.6156273
15.093698,0.7766458,-1.316766
21.740309,2.4300284,3.0533605
20.69952,-2.1967418,0.09053124
-22.991041,4.2262774,4.952028
16.511543,-0.25935656,1.0763515
35.58076,-1.9748544,3.7278306
23.83993,-0.76929367,-0.85621744
7.3740206,1.9783708,-4.40146
26.02046,-2.8787224,5.267834
37.717136,-2.5411963,2.620624
37.176018,-2.8287184,2.0876596
-0.68606776,2.009713,-3.8707876
31.578608,-0.8775144,3.6301513
-31.962112,11.35046,0.39341775
-14.1693945,1.450866,-5.0443087
29.281166,-2.7940917,-0.23659794
32.093983,-0.5653011,3.97234
-0.3325408,2.4230785,-2.0588882
31.703688,0.5693317,0.96729755
29.25294,-4.488273,-0.48964125
-2.9261172,1.2299305,-3.985409
16.94145,0.30911976,-5.539453
20.198284,-1.1594753,-1.1094563
-32.996174,13.435541,2.2018385
23.499563,-2.7280586,-0.18743828
36.778694,-2.1442544,1.8142089
16.139921,-2.2719972,2.7253456
1.350228,2.1157656,-3.3841925
38.673885,-3.252267,2.439779
38.534943,-3.065346,2.2370296
26.43834,-4.06862,1.0670877
31.20478,-1.3110298,0.056761116
4.4087954,8.380822,-1.6023104
17.066574,-0.15193169,2.8005452
-29.8282,10.869334,1.4372342
12.27498,3.376767,-6.3769336
15.301412,0.31472778,-2.145003
38.683735,-5.6803246,1.09943
21.149794,-0.47177586,-0.049464777
33.416943,-1.6138078,2.3624046
24.411531,-1.3361378,-1.0557051
27.139328,-4.3667727,0.75959677
-31.551004,10.534271,3.0968142
38.718452,-3.1922526,2.0069623
13.168502,-0.048391394,-4.6678157
-3.7923124,2.7943258,-1.8799555
28.387062,-0.8148187,3.613341
21.428791,-0.028088627,-3.4493508
20.981224,-0.27617675,2.2780218
14.696557,1.374405,-4.0023384
27.713934,-5.8400984,1.1020374
0.035526343,5.5471606,1.0347128
28.783981,-1.2592714,-1.9428208
-8.958029,1.2678151,-7.326803
18.808722,-1.6747226,0.23434106
28.244936,0.82250875,2.7788403
17.866568,0.36568108,-1.9804449
9.315972,4.6419415,0.18615435
30.914093,-1.8593544,1.9528583
38.81026,-5.451229,1.571332
26.213799,1.2489563,0.83782285
-9.740981,2.4334412,0.73836017
8.064555,2.692122,-2.2016912
23.80783,1.1265646,-1.192924
34.77997,-5.0372,1.660243
0.11170248,1.2430542,-1.8730186
37.859356,-2.4755769,1.2564341
-3.1780398,2.4047523,-4.419704
25.634224,1.269216,-1.2859385
-3.5665984,-0.08153606,-3.7442033
10.903193,-1.9117506,0.5947256
23.02057,0.68573093,-1.5079796
17.583654,5.4500785,0.0436801
33.56018,-3.6911383,2.1597657
19.72316,5.9561253,0.6414747
27.19708,-0.8310963,0.7550905
-32.761253,11.879705,1.6093872
26.523907,0.9866162,-0.7062056
-32.663147,10.766736,3.549582
2.659881,1.9543988,-4.773703
23.720053,-1.12419,0.39151463
32.492172,-1.7149905,1.5188959
2.513194,1.2728709,-4.4521184
30.316114,-2.1259797,2.556273
27.278746,-1.0412428,-4.8271422
8.751003,2.2942977,-1.9242154
19.174715,1.6815581,-0.86254364
16.391022,-0.5660054,3.2404573
25.80829,-2.2234893,2.0452015
37.418644,-2.689575,2.2347028
6.3322806,1.1545072,-5.888105
28.67031,0.49379483,1.6179051
-28.41156,7.135391,2.398149
28.963251,-3.321307,1.7191652
13.973368,-2.5730462,6.2253566
3.1750007,1.6765405,-5.3643827
0.31102875,1.9943333,-1.9327961
6.857327,0.7987891,2.5944963
30.866405,-1.8302611,0.011664792
-3.0101569,1.2655641,-3.7947173
7.7840953,2.1131215,-1.8907386
23.060371,2.5691206,-2.9532826
30.850424,-2.3286254,1.6960002
15.139364,-0.16259778,-3.6220567
7.355518,2.1473129,-0.22431737
11.458649,-0.20354089,-4.163255
26.797222,-1.8971726,1.2559379
38.648502,-2.59236,2.0264435
26.68386,-1.2035037,-1.64537
9.690787,1.2179146,-0.27102634
17.85536,0.96825457,-2.5947285
13.960663,0.6262668,-4.6091614
13.727163,-1.0550047,-1.9305209
19.342945,-0.65888953,-3.5449395
5.870499,0.23794253,4.4008656
18.532934,-1.3313298,-1.1934693
0.8659388,0.08195357,-3.020877
28.427671,-2.531482,-1.2930033
15.837304,-3.231715,2.0755508
24.45904,-1.9356501,-1.6405742
34.734577,-1.8017591,3.0289083
15.188283,-0.05037557,-2.137983
28.59336,-3.2376268,4.256987
30.771517,-0.36403364,-2.5795674
5.5725274,4.3764105,-3.094526
15.217554,0.6929706,-3.4261618
-1.9354625,7.8821964,-0.6074279
27.680845,-5.8474083,1.2073101
19.985561,-0.19647774,-0.3610588
10.051882,-0.36148784,1.7080827
28.320276,-0.1603863,1.0545039
5.1613455,2.4426634,-1.3936472
2.3781114,-2.090094,4.118973
32.76924,-4.2777615,0.93287194
-30.698149,11.658494,1.0094675
25.423042,-3.3065856,0.5994529
35.45596,-3.461869,1.5979474
-3.3436136,2.4399614,-4.2960863
-14.149769,4.743724,2.132743
29.622383,-1.3661879,-1.5545312
25.636581,-0.082518876,-1.4224516
32.322205,-1.0149122,3.0499356
-29.662296,9.547884,1.73903
29.786734,-3.8637006,1.3096237
30.035238,-4.3344665,0.29712275
-27.97468,9.358899,0.479001
35.41273,-2.6527665,1.8580649
27.360355,0.7573121,0.55525213
33.298435,-1.1786821,2.3809214
8.7717085,1.3990682,-4.1811986
-18.656998,5.2546673,0.8910558
-29.51114,9.551955,2.9495966
-33.39642,11.772247,-0.09088172
34.14518,-4.5016203,1.7830197
19.863657,7.4914436,-3.640219
36.013714,-4.1822925,1.3996913
9.396934,1.0111758,-4.693771
13.327655,0.03422495,-2.886869
36.97703,-1.4899055,0.5612799
-17.127874,3.4807754,1.506432
-5.996345,0.5754254,3.4817178
29.13039,-1.2370987,1.2265872
29.975761,-2.2297933,-0.08549012
7.819935,2.8648007,-4.8301716
27.224836,-4.5817227,0.95178795
37.33997,-5.072652,1.8528615
22.69007,-1.7140323,-0.9960528
-9.48651,2.0599575,1.9882432
1.3931079,2.3135512,-4.126863
2.6350584,3.0643322,0.8983969
28.579226,-1.1754063,1.6594952
30.165985,0.8935246,-0.0695415
0.09118376,1.0694834,-2.0498126
23.759583,2.078248,-5.8915052
27.182634,-1.3365307,-0.89811987
28.788754,-1.1021076,2.2581966
35.07769,-3.5265841,1.7696205
26.73746,-0.41707727,0.35046455
12.5617485,5.3438745,-1.2216576
-25.749094,5.7232485,3.8542666
22.77567,1.1860166,1.8417722
13.89632,3.6615946,-1.3762243
37.7633,-2.4849136,1.5158395
34.02969,-4.198601,1.9300882
13.937468,4.8685193,-1.1865368
-32.357044,12.68113,1.7262535
34.960922,-3.7713065,0.6935031
1.2282907,1.7119541,-2.4864147
12.367163,1.0433614,-5.229411
3.7068536,2.8949363,-1.2271101
18.669561,-2.2392015,-1.8692456
24.120872,-2.4162169,-3.2831273
37.658,-2.0388536,1.7543651
4.697009,1.4567213,-5.406294
16.641201,-0.23710719,0.9630248
33.996456,-2.1501775,3.2399383
26.657604,-2.742434,0.44010684
24.966022,-0.9436602,-1.6279683
22.773857,0.43917903,-0.9208002
0.36077875,1.3555014,-0.05312705
15.219359,0.08174769,-1.9109133
18.566349,0.27360725,-4.51584
-30.640347,9.566451,2.6257932
3.9414148,2.9934561,2.0304291
21.639528,-2.2251787,-3.1873639
36.319363,-4.2096767,1.5275869
9.220523,-0.25332132,-2.1470332
2.1108522,0.90246695,-4.7457113
14.729035,-2.1971126,0.58206874
23.86626,0.42646444,0.72833925
22.37786,-0.67913336,-0.8706596
30.52881,-2.0538414,-0.16367444
4.8098025,1.7964509,5.629214
30.912573,-4.712516,0.77791
-3.5101728,3.7922888,0.5496688
30.077417,-1.663644,-2.4632945
-29.040232,5.90851,3.8181515
-33.214573,11.860136,2.2142458
5.2037673,3.8122709,-8.467306
-2.3183515,0.93526894,-4.814622
9.553071,2.9259186,-3.6229484
17.958536,0.13459368,-2.4795623
5.2231603,4.451586,-8.064013
-23.499563,6.7006907,3.6906323
11.508799,8.266476,-0.05863902
22.915524,1.8556274,-5.0231185
-3.2296696,0.53071564,-5.2062645
6.8308735,4.1261706,-9.067217
3.0157428,8.914321,2.903544
9.515481,4.2061753,1.3677475
23.109144,0.72120905,-6.970809
21.621752,-1.8955592,-2.8781374
14.949368,1.9092308,5.893568
15.301325,0.2942125,-5.9689255
20.532387,4.5182343,-5.44223
18.596714,4.3713403,-8.005431
-2.2171323,0.9455041,5.4701066
9.11561,7.5013304,-4.015744
25.972483,0.991974,-6.3793178
-20.199186,-0.38361123,-1.0268179
-7.252952,4.7415214,-5.836522
9.172452,9.225896,-2.905971
28.638674,0.22881803,-3.9563723
21.86448,4.131259,-4.313474
15.376876,1.8573658,-6.9281306
-15.1136055,2.8510737,-1.1422114
27.010883,-0.0564611,-4.1495504
-2.2261896,-0.2561117,-4.1164875
22.42728,-0.19478859,-1.0390351
10.032895,5.665149,-5.6485605
22.20359,0.16580085,-3.359978
-3.1596093,2.7932034,-6.4434743
39.392246,-2.5212672,3.3400695
14.424803,1.5963755,-6.571574
5.2321067,1.3817955,-6.2987633
-22.694664,7.38977,4.08617
7.2424865,5.2997503,-8.272286
-2.8556907,0.20863065,-4.778448
5.6487017,4.631651,-7.433217
20.024345,1.590077,-6.156699
15.263482,0.33868676,-5.815846
16.73372,0.5745605,-4.0685053
11.1222925,3.474904,-6.8847203
-9.472151,5.811554,2.272751
20.984879,0.91881675,-1.7268137
17.676733,0.61900586,-2.572437
-32.518475,10.389581,1.9948117
7.281184,1.9379821,-4.4078856
-23.382034,6.6598887,3.2888668
-16.61566,2.3150594,-1.8687652
7.8057265,5.1036086,-8.0924635
20.047838,6.0996346,-3.2962582
22.524414,3.7435765,4.540716
17.22891,1.1285694,-7.0660424
-0.78049564,0.5512272,-4.953365
17.610514,3.5654037,-8.5800705
2.4002833,4.332421,-3.355359
27.182316,1.3545675,-3.3104222
-2.3717284,6.456926,4.608826
25.798368,1.4302585,-4.888515
-2.174619,0.36044735,-5.6691403
9.103487,2.309568,-1.7126034
18.694471,0.58452064,-4.433602
0.5272208,10.936649,0.22712073
-22.984873,4.7888284,-0.9901932
18.843323,1.0757285,-4.0533543
0.6676457,1.8825129,-5.449362
26.476385,-1.3726426,-4.3520226
-2.0546918,10.428095,1.6049438
15.276797,0.24536417,-5.5516243
35.803204,-1.0550323,4.687387
2.4291224,2.2416172,-3.5432808
8.030477,0.45485944,-2.9087474
16.637802,0.9458753,-7.6458635
2.6460657,1.9871842,-5.222064
1.4223974,1.5079758,-4.1953535
9.414564,3.752819,-6.4930005
25.98297,0.8188227,-6.5196924
-18.738024,5.697383,3.1670024
3.6797628,2.460892,-3.6411371
8.372982,3.3843684,1.3941888
-24.517002,5.6063857,-0.50331515
-18.205772,7.7064424,-1.1006359
-0.49293962,11.896462,1.4026407
11.041601,0.75869817,-4.7485433
11.121917,1.5964625,-7.0082808
3.08307,8.480022,-0.2630723
19.779594,3.7258656,2.343888
10.174766,3.8433058,-6.552088
11.380815,2.0880258,-4.983452
15.417379,0.9794908,-4.2482715
29.915615,-3.9328175,-0.47371525
-20.842413,4.6866636,3.672696
-16.968485,2.905631,-1.2178462
-2.695239,2.337491,-6.4320083
10.096343,8.424649,0.90155613
10.882304,1.7391655,-5.037509
19.870749,4.6673365,-5.2173185
28.845098,-0.19543418,-2.0639317
-4.6044464,2.250897,-0.6699145
26.382397,0.55216247,-1.4677819
13.019116,1.7448757,-6.14128
20.40788,1.4750931,-5.602118
-4.115545,0.03114995,-4.8820434
13.331817,2.9001505,-6.0329237
15.181349,1.9466572,-6.2041445
2.2486503,2.337499,-4.7627025
7.946678,8.908058,-2.7955468
14.529885,7.376976,-1.9271125
19.676632,0.047598172,-1.008473
6.892436,9.352068,-2.5004933
-1.3460087,6.0688725,5.117165
-4.2784076,-0.020804249,-4.8681374
18.737333,1.3722283,-0.9701729
-6.8035,5.4634395,-4.775901
16.780703,3.5182517,-8.828451
23.468973,1.6688896,-6.041952
4.9667497,4.497778,-8.115649
17.41883,0.7117881,-4.4455914
10.027291,9.140609,-2.959065
4.1957684,1.8609587,-5.32052
7.5009933,9.946439,1.1048491
-7.7183094,4.349419,-3.7469997
21.112476,2.0359316,-6.6657386
2.5686612,-0.4802742,-4.4949217
-2.1094956,4.2739105,-5.742995
9.8091545,1.1579577,-6.224152
4.903193,5.8310804,-3.22322
22.062546,-1.5416344,-4.849303
19.988121,-0.68124276,-5.9199624
-26.941502,9.076822,2.732386
4.6584706,3.9944634,-2.5663126
-6.577326,3.5734131,3.5090585
28.835487,-0.4853254,-4.3322043
13.271098,0.80518246,-6.30049
22.475233,0.5191212,-7.6689634
-24.727371,5.6115947,1.3323581
-5.194748,1.2124745,-2.5424922
2.2902105,2.8537598,-4.9861927
4.121913,4.4049616,-8.356813
0.5761574,1.2441758,-4.898731
5.858587,4.169493,-0.004151632
6.017151,2.4308074,0.14613952
35.49766,-1.9680192,4.7327876
25.426449,0.6352318,-6.135608
23.280432,4.912556,-2.8811965
17.655886,3.516705,-8.620329
14.724374,1.317827,-5.9773073
10.387846,2.0962389,-2.2029417
2.8155465,0.072381645,-4.8222413
1.5085871,2.1139908,-3.812376
-1.7241681,1.051912,-2.2648187
14.740797,-0.049650125,-4.1449275
23.899424,-1.5276173,5.8320622
12.549918,2.0458305,-6.8653197
-0.24520333,11.360347,0.040033985
16.952139,1.0486223,-7.6671505
23.443232,0.83688056,-6.514549
17.557064,3.6434314,-8.558254
2.7718532,0.74138314,-4.488125
10.775008,0.98799306,-0.36748475
2.0232193,0.528111,-4.6723094
-4.7476544,4.2826486,-4.713766
32.294235,-1.1809675,3.2343163
-0.8317923,12.244188,2.336878
35.119713,-0.07503479,4.0989056
-3.2603338,0.46363246,-4.472868
14.31467,0.74350345,-4.958513
-2.8423362,2.0055633,6.4225945
28.662214,1.5036477,2.7990239
32.345436,-1.6213439,4.099318
13.363628,3.2472134,-7.4646764
-7.229722,3.998275,-5.0101147
17.158554,3.5443933,-2.0913832
1.7331754,11.517505,-0.33085865
-4.3007994,1.4934986,-3.0599296
18.32742,7.8236737,-1.172178
23.210508,1.0404553,-6.165567
-8.209077,1.8595593,-2.381045
18.152924,3.8000488,2.115824
11.395357,1.3809152,-7.114028
16.51299,5.937369,4.541148
12.399653,1.9369168,-5.0776577
5.1712766,4.4053555,-8.157436
4.238089,4.36753,-8.36551
18.285343,3.9207108,-8.1349
15.164263,1.7420863,-4.583863
8.784604,2.7030265,-2.665207
-19.440044,6.47735,0.5711083
17.563185,7.915067,-0.98428434
-6.3503866,0.5999671,0.16210511
22.27725,0.79209316,-7.607383
22.971457,5.243851,-5.0440426
8.062907,0.46260396,-2.7922437
13.772944,0.5427194,-4.3076887
13.499192,-0.02248929,-4.8752136
-7.289031,4.3180027,-4.807812
11.980141,3.6454866,-0.2805141
15.187691,0.4245632,-5.7532377
-22.325352,6.543506,1.4655656
-7.567847,4.4455905,-5.217566
-1.4439908,9.973701,2.3566933
-5.849117,0.1732368,-3.6119888
17.237894,3.4362574,-8.56952
-19.479664,6.030349,0.40276957
5.568569,1.7617207,-5.9527926
-3.043561,0.4120403,-2.7175272
32.259293,-0.7904387,-1.4054797
2.3103292,3.1325905,-4.803876
12.066526,2.2318504,-0.04884179
5.089956,0.84711444,-7.1874466
-24.207024,6.858944,3.7933104
20.76848,0.063811086,5.3476257
-0.7146234,1.904342,-3.8970273
24.55683,-0.5468407,-2.6958578
5.6323996,4.530712,-7.981009
15.551884,1.6462324,-3.8095484
-26.485878,9.237446,3.1264477
7.8248587,2.2549834,-3.8919015
20.772903,4.440482,-5.042252
24.87456,1.2328064,-5.9368014
18.57101,2.7213018,-6.2782445
-21.801445,6.3164372,4.421356
14.9205675,1.3760848,-7.0646114
8.991749,2.8367226,-5.0503736
17.185446,-0.12423415,-6.534392
-2.0468209,3.5157866,-6.294063
25.448847,4.4787893,2.0590305
17.628817,0.9676398,-2.3175895
22.762064,3.0119326,3.9578204
-2.645481,0.16759555,-5.705269
8.491136,1.3593745,-4.698294
7.3470144,1.6645756,-3.98719
-26.640745,7.8196745,1.4212135
32.20523,-2.4968731,0.031115627
-2.7760108,0.20293735,-2.4766438
1.180843,1.0366961,-6.6426435
11.732275,0.89717877,-5.2274213
9.546939,3.0964005,-3.6152883
22.220667,3.5879033,-3.9524674
-23.423088,6.7218184,1.6005065
-2.7578626,0.6519122,-4.484025
14.633758,-0.50252944,-5.075699
18.895351,2.3014112,-2.052777
15.536119,1.0010648,-5.30738
6.3174295,4.349628,-6.857255
0.12605973,0.9345534,-4.9212985
21.350115,1.6932012,-6.5081725
22.983232,0.6164333,-6.3402615
17.20955,3.5292692,-8.626646
5.7253785,4.3431168,-7.657023
28.806334,-2.3992453,6.3098474
18.253922,0.19232526,-5.3037395
-29.892057,8.877387,0.45285234
-19.579952,5.750872,1.8890034
5.818749,2.4214313,0.9337271
24.832266,0.7789792,-6.4842033
22.880169,1.5624144,-2.289778
3.520944,1.0555594,-4.1551943
-0.7771896,8.819514,1.1802216
20.001242,2.193341,-6.5359516
7.9132853,8.705537,-2.5141346
-6.001195,3.7336607,-4.388787
12.955027,4.8186316,5.283396
33.084213,-1.2631797,5.10932
7.061855,8.835136,-2.477913
22.198624,0.58766097,-2.9928753
-23.147995,7.3936577,4.250671
2.3848112,0.25949106,-1.8841656
5.5084324,1.921712,-6.0971165
0.8410747,2.1300936,-4.565515
13.914985,2.6094756,-6.094968
-16.646734,4.046105,-1.5950466
16.560375,-1.4971681,-3.8067937
3.7826116,1.5941664,-6.297521
10.002524,3.474136,-2.7466977
26.3356,-1.6602203,-3.5481565
27.790178,-0.64344233,-2.3853347
-18.614151,6.2168965,-1.8400813
8.528099,2.3565276,-3.848597
5.6500034,1.5233172,-6.082743
16.548246,1.5362607,-7.641766
-25.20603,6.4802923,2.6205869
1.5479944,2.3849475,-3.6772168
1.5806347,0.96105814,-6.593593
21.137945,-1.4666759,-1.6399989
7.4462147,4.442533,-8.268254
25.500765,4.127776,2.2782526
24.883162,0.61517864,-6.1075068
11.958558,2.8683462,-1.3232006
21.610252,0.09929482,-7.7058673
33.1024,-1.6273502,4.9784694
29.48,-1.440096,7.3088064
4.5638375,3.261494,-5.2650566
5.275237,6.592748,-3.1268945
25.175325,1.1141024,-5.455154
14.657607,1.0753539,-6.343857
15.084498,1.9678726,-4.745487
7.6051726,4.5548697,-8.244488
-1.3414834,12.008463,2.281809
6.9223914,0.5535358,-1.2640738
9.577293,3.9889872,-6.5369606
39.4775,-2.6483805,3.2090907
-27.292944,7.5019584,1.2578275
-18.205782,4.147856,-1.7739083
12.424887,2.1948218,-2.1870995
13.586358,8.509938,-0.048852134
0.5087642,4.65052,-2.0142677
17.970125,3.7190645,-8.234942
1.1470894,1.9819714,-5.3060584
16.92833,0.28636885,-6.241365
7.9441276,3.019077,-2.7092345
21.803736,0.73486656,-5.820125
9.091944,1.103182,-3.051066
29.40066,-1.5234593,-2.510112
12.686282,8.543214,-0.14544222
7.380943,3.8093064,5.393395
-26.96713,9.407047,2.0982733
-7.4410524,4.54786,-5.2653203
-29.17933,9.734018,2.677353
-19.386711,4.9736915,1.1729903
-4.7703404,1.6580501,4.9430113
7.3671894,1.2439839,-3.2536738
11.242053,0.20787315,-4.2218447
22.18037,2.7442505,-7.866126
21.246548,5.5016255,-4.0643134
22.329973,5.0726357,-4.8216395
16.690535,0.49578863,-2.0246432
28.129904,-0.40098384,-3.610698
10.989491,2.7809904,-2.1637938
8.042177,8.406552,-3.8414428
5.435267,4.48791,-7.990098
7.423173,1.8579766,-2.952886
-24.35565,4.5998883,3.026969
21.158308,0.47695637,-6.0728087
22.304876,3.353934,-3.881715
8.047351,0.6523676,-4.2970915
6.065993,1.9705387,-5.9671836
20.586563,4.4705772,-5.451791
-8.326452,4.291663,-3.556361
23.551153,0.05991525,-0.28859818
11.661038,1.706893,-3.9129577
-26.927433,9.080607,3.0442932
-2.8630433,0.6205878,-4.683633
11.818931,2.5618527,-0.11503193
-31.869585,11.255817,3.6208458
2.1921456,0.30083385,-4.5124984
18.797476,0.8140064,-6.6336985
6.434864,4.030849,-8.427962
-4.2054415,2.756742,-6.035023
14.669596,0.30974594,-4.916691
4.7054963,0.9731819,-3.7388377
-8.215754,4.2644243,-3.6807804
17.796394,3.6663673,-8.505479
17.889826,3.6524806,-8.238348
5.138573,0.69289243,-4.1423564
9.998037,3.2302108,-2.1813788
14.110635,8.847543,-0.7346916
20.297844,1.8101951,-6.345238
38.966877,-2.270377,3.3375967
17.785244,3.653688,-8.470879
7.4527793,4.769291,-0.2785275
5.460019,9.584636,-2.2186406
-2.0873175,0.40861005,-4.6857624
26.495817,-0.4188403,-2.16577
24.53072,-0.117821425,-5.843818
-26.931353,9.334156,2.1894367
-0.646493,11.729207,1.7022439
9.282369,1.9982607,-1.822791
-30.256746,9.909797,3.0797737
31.489422,-1.2138577,-1.240083
21.933228,2.5810468,-7.860895
11.568561,0.399266,-4.527722
9.042426,0.6325356,-0.63495815
17.1988,0.13860266,-6.261743
21.760561,2.5371807,-7.881911
4.990511,0.61932194,-4.084444
17.452599,1.048315,-7.9909782
7.2162614,5.452907,-8.249313
23.20848,3.2050028,3.2437468
13.994297,1.8275203,-6.509083
35.755016,-1.7438736,4.602634
5.76855,1.2522926,-6.3038545
10.879333,1.3945087,-7.0632114
29.123302,-0.009370163,-4.492076
11.264809,8.667854,-2.777432
4.711203,2.0593805,-5.074688
15.2822,1.513192,5.5140176
13.311375,0.06886694,-5.451147
16.294172,3.243664,-8.770221
17.986809,3.6475136,-7.9067774
-24.70801,7.1505737,4.4396267
-5.5546737,3.4565618,-4.445911
-8.408105,1.6259806,-0.675966
4.3163238,2.8146446,-4.118528
7.0620127,1.6706253,-4.9821043
-15.695916,3.901736,-1.4820423
11.800363,-0.2932472,-3.2932744
32.235355,-1.3779825,4.4199014
-5.6014667,3.4371555,-4.5381756
0.7333688,3.5138593,-0.3675513
5.4061446,4.0741677,-7.9635096
0.5398354,10.405036,-0.24724601
21.71901,4.009571,-4.1036954
9.362255,4.408576,-1.9749656
-24.004229,6.98607,3.7563555
12.810024,0.026522612,-4.407221
-24.924627,6.7675414,4.8231244
-19.628057,6.5750403,0.9610925
23.686684,-1.5550842,-5.184448
15.414287,1.2035128,-7.7115774
18.14003,1.9793139,-4.07668
12.129099,1.8797746,-2.287134
-22.610989,4.9255757,4.980017
4.837001,1.6330884,-5.673399
33.211037,-1.5022508,2.253675
6.460316,3.9641707,-8.694557
20.685005,5.1873126,-4.597314
20.670998,1.0521774,-1.6398065
1.5840709,-0.35560548,-0.4570215
7.245598,9.728274,-2.989745
12.621998,3.0500333,-4.4914947
10.865569,6.709248,4.049253
-6.907535,3.9842682,-4.9533806
2.4703946,-0.14601296,-4.5118074
-24.529348,7.024517,4.245557
12.494764,1.9575882,-5.801653
21.832657,0.6938432,-5.3553286
-20.942324,5.33195,3.712762
-4.282703,2.886311,-5.9306703
0.822486,2.2046292,-5.2316227
21.705046,4.3459373,-3.644822
14.031375,0.86982805,-3.711084
-13.207333,2.7550938,-8.204618
-2.290488,0.25349718,-5.114608
6.2321005,3.9188979,-8.722477
29.389505,0.04982006,-4.5320616
3.7521732,1.6186353,-6.107041
28.41099,-0.4303291,-3.3191392
12.287613,2.328436,-1.7673811
-22.826546,6.7826915,1.7055038
-21.780375,6.370309,1.5026618
-2.4030788,7.4445434,-0.5793474
14.233923,1.3865248,-4.7616425
11.310074,0.16122049,-3.306687
5.1579547,3.914566,-8.309786
-3.7450354,2.8164217,-6.185986
-14.940331,3.1140082,-1.0366986
1.9542332,2.0413218,-5.4342356
-23.328402,4.0754538,2.071106
0.25900558,1.9307599,-1.9335083
-19.01227,3.933579,5.065891
3.8347256,1.3335726,-5.3840694
10.011903,5.6541934,-5.191492
4.6145864,2.8734612,-4.296468
6.184554,4.6313095,-7.421024
-4.8491225,2.3676486,-0.8819182
28.811768,0.5455599,-3.3975797
28.179506,-1.1173995,6.6871557
-7.3019547,4.3313985,-4.876401
29.91778,-0.4623552,-4.5319343
5.131709,0.74455315,-4.168955
40.27704,-2.8675773,3.4734333
29.963505,-3.3102088,2.4275446
-8.288838,5.995865,-1.9362707
-27.195065,8.487285,1.2476541
-5.0096326,1.3183576,-2.6719427
25.182665,0.65617526,-6.11035
0.4876189,2.4830852,-2.0586941
14.809046,0.2586324,-5.0186834
4.6882415,1.8444966,-3.148082
29.313148,-0.27521133,-4.687285
8.847187,2.1987033,1.288882
17.043852,2.9154723,-8.172028
9.87742,9.364286,-2.6446683
2.9745183,1.4112355,-4.3665094
26.712154,5.181748,1.8217484
-3.3022637,0.22566687,-4.295933
22.903128,1.721415,-5.7527275
31.831917,-0.5814756,1.9704282
12.621726,1.9255307,-7.5484247
-25.61036,7.0689178,-0.68957907
10.316025,1.546901,-5.590789
11.394937,8.695624,-2.241564
16.796385,1.9258637,-5.60155
24.676582,3.38883,3.8432028
12.102167,0.7792501,-5.26175
19.33832,0.4278118,-3.4671009
2.381763,2.0204203,-4.754071
1.9687921,3.4226837,-1.3046063
22.202248,3.731558,-4.194681
0.38488975,7.1030107,-0.093672805
11.656286,1.0100125,-6.186217
-4.1112604,2.7726207,-6.038776
30.923391,0.53475183,-2.0204606
-10.111963,5.3968663,-3.10935
-26.687773,6.453343,0.81793165
7.6529474,4.5585585,-8.212739
6.3103523,0.41170666,-4.5786557
0.07359551,0.58353525,-5.181897
15.738291,-5.545094,2.6639743
11.652846,-0.3324058,3.0146434
1.7987696,-0.008904257,5.2730904
-23.16565,6.0006056,0.070087574
42.921158,-5.9737735,2.0543787
20.793695,-5.7563777,3.1174173
11.006317,-3.677803,4.5105424
11.883744,2.0165296,-8.625983
14.306903,-2.2501373,-3.290874
10.824256,1.6760371,-7.6692767
22.114737,-1.444794,-5.174412
-1.5762407,-2.1901066,-3.0060055
12.363875,-1.4779142,4.7233214
8.909705,0.71525985,-6.61355
23.10317,0.7289844,-6.3627067
-25.699684,7.8005104,1.336364
-19.004877,6.058492,-2.3227143
18.336742,0.30312485,-6.6818194
15.309584,-4.4064255,4.1080294
41.453117,-5.726397,1.2520579
25.986958,-2.0377634,4.9064407
-24.511591,6.955774,-0.33393496
-12.06201,5.2031255,-4.279355
-1.6684502,-1.9726636,-3.308139
22.831352,-8.071997,3.8562806
12.085263,-3.7294118,4.880471
2.4824412,-2.9338892,4.458419
-14.339339,-2.119561,5.3971086
15.492016,-1.3069669,4.9108095
4.457449,0.6045514,-4.396069
17.078402,-0.28092894,-6.7150993
15.158419,-2.2844548,2.1714208
-4.240174,-1.1475599,-0.30727705
20.136683,3.5921981,-6.2177944
-1.1158645,-0.6131571,-1.4929888
-2.0315065,-4.875486,5.235646
-5.3553896,1.5722252,0.37881973
-19.423317,2.8421931,-2.339469
22.605726,1.187341,-5.300746
10.711447,2.0490017,-8.08947
16.55073,-4.1421547,5.3199735
41.78548,-5.7722816,1.1472352
12.081425,1.6499724,-8.797098
-2.2736716,-1.333407,-1.5840746
5.4923077,-0.060588084,-4.3054996
10.99862,-2.9897058,4.9185348
34.334187,-5.0646276,0.76748085
20.29312,-5.155314,0.5518145
10.289511,1.2572609,-5.6434264
0.98393875,0.05782836,-6.0946765
19.504759,-0.59450614,-5.527236
-15.527498,0.63196445,3.1847281
36.507366,-4.5168104,2.1740892
21.757538,4.854469,-4.0188966
-5.5528727,2.1124825,-4.3470826
-16.469633,6.543499,-0.63295686
9.572297,-0.7045622,-4.425619
-20.248032,7.4810977,-0.38630104
-2.7768407,-0.22377516,-6.273411
19.075665,1.5289145,-8.71282
-20.064436,7.5856004,-0.3854821
41.754894,-4.7390103,0.19859898
23.964706,0.07944342,-6.3729005
12.289939,-3.6061625,5.0096517
4.830351,-1.18604,4.513371
28.731821,-0.62815195,-4.438244
-0.8279572,-0.98977816,-2.2375205
40.851227,-5.426141,0.77660376
-5.8751955,2.3277297,-5.0442295
21.994825,1.333959,-7.6792183
21.873177,1.4942232,-7.0318027
22.16925,-4.565163,2.4603004
36.757805,-5.5156956,0.6204496
30.865805,-3.8899696,0.59746665
24.964102,0.7211266,-6.9577355
13.5116,3.7198868,-7.5476103
32.583347,-6.1895432,1.3158377
-24.374228,6.891713,2.8264375
34.64481,-5.9551034,4.7291303
42.56662,-5.8612046,1.0688186
8.630328,-2.6972425,3.2887585
13.646208,-8.259698,5.525288
40.74373,-5.3654165,0.772939
18.25501,-4.51099,4.7022314
7.5608945,1.5117899,-6.792076
10.58127,-4.644944,4.9299045
-26.7893,7.5030727,0.8444398
12.327433,1.9829874,-5.582269
-12.580502,4.883823,-3.2930965
6.795213,1.9583728,-7.8585405
39.38571,-5.346105,1.1395528
17.171936,6.781174,-0.11000764
3.125943,-2.7067072,4.932914
12.414797,-2.213553,6.6277003
-10.942635,4.8372703,-4.3501782
38.973896,-3.601106,-0.22992335
16.489948,-4.855383,5.251895
1.2011701,-3.7122087,-4.1157312
28.133738,-0.58192146,-4.388708
-9.259211,3.7870562,1.9736285
24.380787,-0.2548868,-6.20563
33.3277,-5.098255,0.13538589
11.7865715,-4.6194973,-0.30091283
-31.179617,12.02291,3.4048154
12.341492,6.085872,-3.1508508
12.362974,2.2592402,-7.9742236
4.697271,-2.4563394,3.506883
8.632846,6.777538,-0.17135805
13.35273,3.3483078,-7.407494
-5.515476,1.0935453,-3.8692253
15.110124,-2.049715,2.3578713
9.835866,4.1074853,-7.326987
25.984331,-4.66038,1.8623265
-28.366968,9.120529,3.4791915
-24.333551,5.7979026,-0.073305525
39.448547,-5.587796,2.3613834
37.60566,-5.5415497,2.2171257
9.285048,6.845759,-4.985449
-3.2955775,-3.1793144,5.6322207
37.209743,-5.089342,2.3949537
-0.7293187,-0.1713347,-4.9777923
-2.6855698,0.9919355,-5.1876884
-2.412379,0.10998091,-4.218288
22.377209,1.0760726,-6.283913
27.606867,-5.5631037,1.0640634
-5.529517,2.2265847,-4.96691
42.53541,-6.138572,1.4688872
-28.867487,7.9126244,5.884771
12.580913,-3.6210127,4.134793
-19.770866,6.4757643,0.41621685
-27.631466,9.742922,2.7185328
39.813812,-4.243066,0.104246296
22.5316,-3.3737543,-1.5502957
20.438375,4.510878,-5.8256574
-27.221472,9.18992,2.3360062
-8.940153,5.518158,-5.74235
-0.7788881,12.168074,2.278199
-24.026014,5.4807143,0.12198761
12.4129,-4.617616,-0.17337283
-24.133919,6.054759,0.68754053
9.396067,3.8008134,-6.637252
12.378613,-5.888599,-2.335158
-1.4790374,-0.51452804,-1.2546372
-13.599974,7.639234,-3.4024644
28.218193,-4.9318004,-0.42669466
-16.379513,6.2441797,-0.95925283
24.270674,0.76890975,-6.5049176
3.3063939,-2.6598876,6.921119
43.155853,-5.7488055,1.8789915
33.582363,-6.906809,2.973053
-5.544394,2.1817584,-4.59507
39.249702,-6.2239604,2.6020367
24.453571,0.7560893,-8.166275
-6.137931,-3.472321,4.7237997
-19.688444,5.275248,-1.6168077
-18.659472,4.033349,3.3617234
8.173487,6.1716757,-0.4304086
19.365389,-8.40512,5.397538
35.09115,-1.8029646,-0.057761215
23.076986,-5.7244534,0.024168078
23.975355,-4.3410945,3.1064208
11.149879,-5.4508386,-1.3252068
29.02868,-0.21648969,-3.7117083
-30.738077,10.081249,2.523051
41.044548,-6.7855687,1.8234444
16.813452,-0.29724127,-7.3013105
9.603081,-0.21246256,-5.0663323
21.341892,-7.641561,3.4063504
-18.886768,2.6857295,1.6817245
20.18567,-5.818432,4.419084
6.1840425,-2.718987,4.944424
-31.016466,12.104173,0.08734346
5.1614,-1.570092,-0.9551731
-3.086209,0.1111507,-2.5996761
-6.720624,2.423208,-4.8449116
9.4342785,-0.17724092,-4.537075
30.405415,-2.1708896,2.574897
-29.969072,9.625808,3.4823322
-2.515506,-4.4065413,5.1521034
35.094883,-6.93972,0.62892103
6.62013,3.0711539,-8.640786
-15.712664,6.008593,-2.5720563
-28.337107,10.206308,1.8134167
26.029257,-3.0669615,5.2110615
19.07867,-7.7753677,4.6924634
26.173447,-3.2481415,0.49364874
11.172733,-1.2754353,0.7282685
27.905792,-4.9042606,0.12499022
10.674112,1.3442229,-7.77963
39.53779,-5.7265773,2.4129875
29.128092,-0.85070103,-4.260716
-10.769874,2.1198251,2.9574199
2.4118495,-3.36526,4.670285
-11.383795,-2.5527177,3.088304
42.072433,-6.100907,1.4179711
-1.0762326,4.9527197,1.2242708
1.046733,0.28565878,-5.6103206
0.6132045,-3.5245655,-2.9290009
-7.8637476,0.6461752,4.583673
41.508648,-6.1043143,1.3384814
7.272647,-2.8714612,2.7483256
0.23479502,1.2637708,-0.5958909
9.653529,-4.916665,5.003414
10.201013,3.7491546,-7.3809214
14.60222,-4.2582245,4.9255404
-0.3040937,4.4225163,4.912794
27.89577,-4.846297,0.40620613
10.715779,4.237727,-7.0589814
-27.37724,8.736125,3.204512
-25.162966,6.497095,2.1907618
15.117579,-6.041124,-1.8168257
-25.030718,6.881078,-0.39637882
38.19894,-4.527946,1.1264067
11.948862,-2.0548425,5.0282826
-26.937714,8.9529505,1.1628326
38.83204,-3.564393,-0.1858711
9.499106,-0.8085646,-4.375577
24.1212,0.8470127,-6.9964066
14.011624,4.50233,-1.0538493
2.7659726,-2.274889,5.9540076
8.980261,-1.0214815,3.8079913
-13.455254,5.8153057,-3.8527985
2.9940505,-2.8018038,3.985669
14.047086,-3.097997,5.5679936
13.387072,-7.536974,4.862403
33.06403,-4.9298034,1.6463511
38.99762,-6.006837,1.4265319
-9.420584,5.7437925,-5.8866806
34.97325,-6.9855113,0.46610996
-9.346896,5.7187457,2.321115
-29.977064,9.989028,-0.7833557
-0.6217346,-2.641322,-0.975012
32.695343,-5.999466,1.2647544
31.234272,-3.8558118,-1.5764012
27.53619,-4.210863,1.4589809
-1.9869944,1.0099412,-5.2041006
18.800543,1.0649369,-6.9377213
-15.6992,5.8274236,-1.4029262
-23.596754,5.9087877,0.5737886
22.4433,-1.4794016,-0.34747103
26.149042,0.56463486,-7.629649
-30.670994,9.157188,2.407013
1.2134326,-4.5878663,3.7738771
38.255222,-6.8760386,2.6615472
17.189165,-0.6151071,-7.3409243
1.4509029,0.6703685,-6.3244
20.179447,-0.97112626,-6.2127857
28.112751,-1.0706506,-4.146831
15.909652,-4.464294,4.0730586
-31.448309,11.901221,2.093972
12.009723,-3.1665118,4.084904
21.525257,1.6568887,-6.718095
-0.7592362,-3.7257843,4.5703683
-28.942734,9.711125,1.6409281
-32.064846,10.386954,4.008434
24.615097,0.8041087,-7.1943507
1.731043,0.7512271,-5.8375964
-27.769817,9.3936825,0.8541453
13.251423,-8.241083,5.3100343
4.7445607,-1.4716972,4.626037
24.31267,1.1578275,-8.425777
39.36692,-6.541598,1.8472719
3.904197,1.9287587,3.0696342
0.40548706,-3.3952641,-2.6650722
31.092024,-2.489808,-2.3758261
6.311954,-3.3069394,4.045823
14.00066,-7.3591547,5.856094
14.852538,-2.1250584,-3.4012868
25.961012,-4.8027816,0.7890698
18.72883,1.3890102,-8.740459
14.217042,-2.3129666,-3.5405293
1.0328767,-4.226119,4.0027285
-15.55492,6.1280947,-2.6007104
-14.550175,4.9244905,-2.4110224
6.1784663,-4.1168723,2.7222476
20.431658,-5.9867487,3.6019413
20.809698,-6.73801,3.6915538
14.713717,-4.285148,-0.52872604
37.936996,-5.6524825,3.2484946
-15.388046,0.44016406,2.7882092
2.3670266,-0.5164892,7.0060387
10.480873,-0.764812,-5.6415315
21.721218,-7.040976,4.4890623
25.022787,0.8362075,-8.145799
31.303083,-3.5727222,-2.1772585
5.8844414,-0.43721834,-5.6588917
11.785333,-1.7447724,5.9988513
-1.5833353,1.402008,-5.239593
-15.796113,1.642443,-4.3567123
25.80725,-5.0853224,1.6457353
41.226208,-5.3505325,1.123951
-26.231413,8.586331,1.8954731
8.88353,-1.205804,3.7723978
4.209682,-1.5397569,5.571824
-6.151228,-4.839806,-0.95320326
4.0856123,-2.833576,6.726331
2.7387788,-3.0439103,4.528295
-27.472841,8.499723,2.2717764
20.759357,-5.9640293,3.9419436
17.62426,0.1028657,-7.1887956
12.902829,-0.9654925,4.3733506
14.523751,-1.259463,4.8139806
17.6554,0.0799077,-6.996076
-28.056791,8.472943,0.0043579186
28.075521,-4.4117646,1.0697325
9.93252,-0.8193771,2.3821352
-31.571474,9.916593,0.43376577
4.2578363,-0.18503235,-3.592338
21.30236,-7.260429,2.9346013
18.482632,1.3678043,-8.763108
23.816164,-4.4596176,-0.94808304
9.310139,6.9517665,-4.8818674
15.419702,-6.454092,-1.7854359
8.833495,0.9427567,-6.6800556
0.31645283,-3.3888206,3.5905216
8.397446,-2.26695,3.0315177
-11.195646,1.0560758,-0.9572975
1.5046982,-1.5926405,4.1039624
-12.027586,5.0500307,-4.059111
-0.46834683,-1.0655339,3.4830246
-15.1938715,3.1595378,-0.24190201
4.7911854,-2.2395573,2.983383
19.883953,-5.649029,3.6247952
11.708346,-2.7732093,5.0192933
20.00576,5.4532475,1.4936502
21.333885,-4.5980926,3.1360662
43.217678,-5.7765064,1.8808205
24.382057,0.8535596,-8.146725
-6.9496665,0.23103134,4.282823
13.197029,-7.6223335,4.883476
15.766393,-4.2438912,4.6746955
-2.414795,-5.1788545,4.741976
37.062477,-5.8911552,3.0951767
12.837225,3.2258794,-8.014051
-30.017675,10.209878,3.501895
38.754574,-3.7801163,0.24422388
-17.00953,5.3550105,-2.348336
-32.681965,11.1887045,0.3490949
23.86506,0.61117005,-5.586148
-12.583954,5.1132407,-3.4470477
-15.884687,3.887515,-1.4210063
-14.835059,0.9856627,-0.0766026
-27.885563,9.430716,1.6403892
-4.6586156,1.6382219,-5.3889375
22.036032,-7.07389,4.506877
-9.621326,6.2952228,2.5358012
-24.795448,7.005617,-0.46779224
-28.912004,7.9513125,5.9163933
-1.6514813,-2.0039537,-2.9287865
13.707332,-8.416223,5.4567547
-0.8906661,-1.1068833,-2.924648
-1.7349906,-1.4463453,-4.0107703
24.142946,-4.2794275,0.5899006
-8.659082,4.493987,2.2853146
28.486227,-4.211761,0.6093658
42.17305,-5.734243,1.3257782
15.062037,-4.428256,4.688255
-28.288576,7.8190384,-0.07659468
33.975803,-3.28275,1.4037795
-10.606054,1.9586792,2.7816541
-9.769862,5.986418,2.5416322
22.208221,1.2213826,-6.2381506
12.958128,2.580484,-8.648046
14.795468,-4.240146,-0.6059007
5.6767955,0.669184,-6.468584
41.095005,-5.52657,0.9213073
7.2558722,1.7143878,-7.1812277
15.626903,-2.1134481,-4.4253173
38.881153,-6.5826993,1.5536512
11.607714,2.5087488,-8.237692
35.715412,-1.9353807,0.10598007
9.9086895,-1.7160834,2.940339
10.271069,4.7839985,-6.8138247
15.069222,-4.6296663,3.7810886
12.484598,3.2142866,-8.1940155
11.269902,-4.0696898,4.908426
24.734459,0.9056618,-8.279882
22.87613,-2.184233,-3.6032538
-5.7040195,2.2919018,-4.443237
18.577333,-4.5819864,4.6025457
4.0227337,0.7688329,-3.2663193
18.888443,0.6953996,-8.259453
4.770517,-2.189295,3.202446
39.36727,-5.6746845,0.85942847
32.619442,-5.4239535,1.6978977
17.802538,-1.3864115,5.2243843
8.091012,-0.9984537,5.6923313
-4.954496,1.1714483,-4.0544295
28.570723,-3.8739114,0.45102912
40.301746,-7.1748595,1.8192747
-2.8911707,-0.43999293,-6.975171
17.55483,0.9988302,-8.52399
-1.2858716,7.19786,1.248024
12.715051,2.7466664,-8.4855175
7.723132,-2.589623,3.5218353
10.7015085,5.881151,-5.5919404
-26.97688,8.853262,1.8508433
17.930004,-7.3900633,3.80202
33.011517,-6.087732,1.3438505
0.2098566,-3.917512,-1.7001151
34.189915,-6.304492,1.3927487
9.270949,6.86249,-4.838661
-0.5976047,-0.63407373,-6.176143
13.99408,-7.083533,6.3825355
13.583068,3.6447525,-7.476672
21.7885,-8.322793,3.1024632
-13.524327,7.8998065,-3.4003758
20.425375,3.675521,-6.231158
7.160425,1.643331,-6.9617653
8.257519,-1.3850359,5.772151
22.972427,-8.250113,3.7318368
9.891124,1.8101974,-8.273468
18.774515,-6.369241,4.155785
24.925976,0.7292428,-8.247705
-28.86081,8.563015,1.4298629
23.035564,-7.4205194,4.046365
5.8059096,2.270845,6.4495296
18.897327,1.2192371,-8.630246
23.531538,-7.024828,3.7250397
32.55342,-3.9254935,1.2063466
28.220285,-0.46471882,-5.6485457
-24.653986,5.58176,0.7450485
25.111893,0.72405833,-8.24323
24.64805,0.65670395,-8.245441
-27.908764,9.395909,1.3345562
-15.651622,5.9467587,-1.3137711
-23.503891,6.4974313,1.244824
14.883113,1.0683768,-6.333789
-10.729141,0.08076813,-3.9307787
10.031493,3.7884839,-6.8249564
10.948031,-1.0617883,0.8137987
24.94888,0.85540986,-8.296418
10.148364,1.6576728,-8.088565
0.4814626,-3.3848681,-3.7186399
10.955574,1.7968454,-8.097992
15.194052,-1.697682,-4.1838827
9.407836,-0.86766565,2.0587819
-27.650553,8.548349,2.4299488
-5.4562173,1.6123877,-3.3854454
23.93636,-6.3311396,4.0109434
21.423302,-7.056959,4.5463433
1.3566583,6.866253,0.6782482
-24.229446,5.6520395,0.3130127
-27.354546,8.7235365,0.09389609
42.124065,-5.4117513,0.7259975
40.418465,-4.61055,0.012537438
-19.65957,6.3904977,-0.57630765
33.41051,-7.0076485,4.0419965
-18.891768,2.9542947,2.1608078
4.857064,0.07015949,-2.4973452
24.910597,-5.1828494,1.4282552
9.163213,-1.8975451,2.9270043
24.828987,1.1638452,-8.6130495
-29.421324,8.901428,2.046527
-18.775862,5.9991055,-2.3163915
24.331722,0.7225389,-7.3915234
3.2382023,-3.054751,0.21385133
-10.262708,6.069114,-6.012225
19.323572,6.212425,-0.5428406
1.2429041,-1.2952719,4.2135234
17.045246,5.45493,-0.12599586
29.363115,-0.25338498,-4.648947
-15.276261,6.106457,1.1802776
-14.930649,1.6725047,-4.5816784
8.875867,1.1143627,-6.257069
10.595745,4.0213704,-6.6395288
20.960728,-6.2230725,3.9121277
-19.708792,6.4762306,0.23006754
10.132909,4.774553,-5.8114896
-9.665728,-3.6589198,0.0025878695
-11.489499,5.676793,-4.8025594
-2.278043,-1.7828864,-1.9789926
12.413333,-0.67803115,2.8877265
28.56245,-4.128371,0.5604182
-5.4720416,2.1283884,-5.1143274
1.2777195,0.6877812,-7.1603565
1.4286498,-4.290658,3.8116572
21.371185,-9.333849,4.0769324
-10.293758,2.4181867,3.0264094
17.433615,-4.769408,4.523133
-10.565083,5.482084,-3.1244855
-23.417736,5.8962746,3.4808083
2.9800963,-3.0883849,-2.756634
26.611988,-3.4311812,2.4207685
38.761974,-6.3883142,1.0572959
-21.014896,4.0769343,3.3206878
-19.62865,6.655919,-2.0101175
19.63715,5.502545,1.2256713
23.498867,0.6777547,-8.311873
8.658709,-5.391498,6.033265
16.889616,-4.7416005,2.952237
-28.79676,7.9751935,3.6182928
16.926609,-4.814729,4.549471
-0.042724617,0.7319135,-5.2181926
-5.6962714,2.6337044,-5.498051
-2.7168756,0.5235356,-1.847973
-0.6494349,1.1177784,-5.4555116
21.703072,-6.9192133,4.5818663
-9.822135,6.8985877,-3.7840743
-26.16425,5.4857397,2.0378945
15.036083,2.2891943,4.608356
-31.105284,10.80076,0.74259055
31.26087,-0.31873107,6.6632767
15.726894,4.503545,-2.4252896
-28.31219,8.265197,2.3773117
-10.163144,-1.9678693,-6.116468
-9.74739,6.8481994,-3.580595
-10.7899885,2.5845366,-4.310037
4.5117383,4.9679837,3.5988445
-20.482431,7.222795,2.9999847
-10.15645,2.083097,-3.7355273
-9.687926,4.812085,-2.7447166
-31.04531,10.904402,1.591039
23.794626,-0.9468433,1.9004836
4.497972,4.982698,-6.697236
-9.345155,2.4312277,2.0023615
-29.000486,9.897061,0.22488882
-5.871069,3.9929037,-3.8700833
-8.503202,4.5021615,-1.2741636
-2.0256817,3.7556865,4.041693
-6.514923,4.5049105,-0.81212294
-0.31357795,10.916129,0.1296503
18.643452,8.672904,0.3504705
-0.8732601,1.7920797,7.277283
13.296752,0.38675562,3.941838
23.248451,-4.4114947,5.5637326
-29.436974,8.184648,2.0613441
19.677567,2.3596303,0.8951519
7.2379823,5.2388577,3.2804537
25.909998,2.557876,-4.3428698
-11.130038,3.1469111,-3.8444982
21.824312,0.23313116,4.824124
-18.937134,2.8336694,-3.815372
-24.978727,5.172684,0.1797143
25.73765,-2.4150176,2.301663
-0.86548424,-2.480954,4.33049
10.120631,3.3579466,-1.4537021
-9.059611,1.2307801,-7.2940187
18.607128,0.5199044,-4.145545
-8.778398,1.0591437,-1.7859328
24.444424,4.2494855,-3.1505945
1.3464215,5.591067,-2.0100787
-7.7629704,1.8821346,-2.3939223
-0.008047725,11.132356,0.46058795
24.018854,3.247718,-0.09276174
13.491262,4.321853,-4.5959916
1.0267439,-0.7531255,4.912671
6.6981916,-0.44324413,-7.173971
-6.9933414,7.755396,3.1051257
-10.144625,3.8885705,-3.335121
-11.669889,4.238001,4.0087013
16.271936,-0.37150088,4.4149566
15.874505,-0.47282,-5.599821
-2.1707883,-2.7948601,8.815977
-0.51090145,5.6095257,-0.31342846
17.378283,1.5474261,-0.24353565
2.093631,4.889966,-4.150782
7.6579742,2.6853168,2.1708975
-32.571575,10.652465,1.1899744
17.182798,0.24058975,4.2615314
-15.514535,6.2401814,-1.0441642
-11.798692,-1.2583212,-9.138894
22.949076,-5.2806435,5.324734
28.38804,-2.9739203,2.4069133
-20.629988,4.613035,0.726693
-31.910458,11.366236,0.5646399
25.390104,-0.80327964,1.384811
-0.20695603,10.022162,-0.82529134
20.171314,1.7126775,1.2963439
26.12528,-1.3278594,1.0021744
-0.8450929,4.7440963,5.7759833
17.427189,-0.09847126,4.1698503
-18.072786,2.2374315,-6.0921082
24.350842,-0.19174275,-4.8407555
11.055141,2.0058203,1.1067756
-2.1357026,11.780264,2.5583553
1.8883879,5.5677094,-4.6907053
7.2792006,8.584488,-1.1113617
11.499419,4.580542,6.379129
19.570425,5.294568,5.3232813
15.991531,5.2045975,-1.340002
17.778875,0.39927855,4.1741633
-3.0019624,6.047559,-2.249719
16.002512,0.7313049,5.1930757
-3.340898,5.730868,0.16204019
27.739334,4.603193,3.716434
-33.21408,12.34828,2.286727
12.0986,6.4495845,-1.3323505
12.894415,7.670305,-1.4907333
14.599251,2.3030765,0.93605316
15.193778,1.9146945,3.7269788
12.835772,0.55705386,-1.783703
-1.2598317,9.9122095,3.2301507
4.0353127,4.992924,-6.2390704
12.780028,7.7779565,-1.1687438
7.573323,5.1761675,1.4700419
-2.357991,6.688947,-0.25958467
18.58017,2.1251566,1.3014734
19.66916,2.4868076,1.6056842
-0.21356086,1.6421621,8.749921
-2.707347,3.1643794,6.612878
15.247774,7.0473967,-1.3100367
-27.296968,6.8570585,1.0048442
6.237576,5.0079484,-7.64009
2.5130382,-0.34360728,-4.3939
-2.132056,4.6046143,4.126502
20.902554,4.4164176,3.9029934
19.912254,1.6073565,1.9961743
18.683079,3.252296,-2.8866982
-27.09619,7.1746025,1.1134064
-15.568456,6.208252,-1.0884317
33.019367,-3.3240325,2.8870704
15.940248,2.7602417,1.2541656
-0.6082155,6.1737638,-3.1163542
24.186466,2.4363794,0.51852036
-7.8504252,4.452274,-1.1455637
-18.052467,2.353935,-6.0834055
-20.28521,6.728292,3.880181
-26.347383,7.2325287,2.484422
-1.913827,4.595487,3.3687413
-29.605463,9.472489,0.0021820103
1.9007313,0.48338825,3.3897805
25.457062,1.9375658,-3.9699147
10.953066,3.0284188,-1.7180917
-26.465473,8.383311,1.5640523
-19.806522,3.25093,0.3592212
-30.60602,10.566457,1.1059601
17.30997,3.6990442,3.6062562
-7.3535066,4.3964953,-3.7656548
-32.503784,10.4456215,0.75903195
33.3183,-2.3224516,2.866928
32.407906,-7.2405314,6.060737
22.630013,1.0105052,-3.3461566
16.701443,-0.2018054,-5.6009045
-30.775576,11.075522,1.7735803
13.065943,8.32965,0.12426611
-0.17478152,10.091863,-0.8319136
-17.055298,3.4178343,5.0645823
24.927908,-0.037435282,2.129134
11.956354,5.088356,0.09796094
21.164171,-0.28284958,-7.8120213
4.8169656,5.031476,-5.181101
16.253595,-1.8813831,1.0082848
31.330652,-1.7834959,1.1660845
-3.1476889,1.1910982,-5.571623
13.50227,1.1191678,-2.9336123
-8.4916115,4.4274697,-1.5817136
3.3364587,4.96674,-2.1099489
9.186077,8.1906185,-3.366447
-28.34916,9.689642,4.107352
5.212157,6.3977017,4.554042
13.030473,0.85149765,7.548932
12.332383,5.351782,-0.962561
-0.3181729,5.850421,-2.385348
-11.432078,3.4355764,5.5897455
30.526913,-2.5987654,1.9105923
6.3538523,9.023529,0.40501565
21.200201,1.5739617,1.3380945
2.7246315,6.4244094,3.1283574
-11.434778,2.0895562,-1.5548605
-2.2316265,-4.832284,8.500262
-28.688204,7.45017,3.7307541
3.2349427,6.070124,-2.566967
-12.220311,2.662493,-4.0292444
-9.906192,6.7251053,-4.1242003
3.733198,5.0453057,0.60871696
-0.8915527,1.9086255,7.2725444
23.751545,4.730712,-2.964205
-0.099584006,1.3790989,3.8080122
-1.1283672,5.3432837,3.0306172
-12.959524,2.4814186,-4.19097
-27.418957,6.5795703,3.4623477
5.439712,8.299427,0.21551156
10.164247,2.1907713,0.63634115
27.84945,-1.1993978,-1.269742
7.546312,5.405361,3.0913703
16.278322,2.4800663,1.203507
-1.138176,10.750585,0.2311355
21.068357,4.4809923,4.093877
29.809298,1.3968703,-0.6669189
-27.31868,7.8549924,1.8778107
9.036451,7.7890277,-3.2734442
19.047709,1.8437802,1.4029659
7.208434,5.03602,2.9254107
2.46553,5.5312214,0.30233225
-16.570953,0.39348218,-5.5205946
-2.230554,11.207055,0.4173526
3.3649063,4.727726,-2.2978017
24.241615,2.2184458,0.25607255
-9.92694,3.8846228,-3.4515703
17.450699,4.2285147,4.051832
-3.3321638,1.6902568,-5.8216753
19.767996,1.4885966,2.6698685
-18.208923,5.4539113,5.737266
-4.1937256,1.4430069,1.2176158
-0.24349323,5.920393,2.6880686
4.8946877,4.6073084,-2.4210992
-7.0820026,1.1993216,-0.30308688
-31.446962,12.585528,2.799644
8.398151,3.725983,2.0028734
-11.6249895,1.7024484,-2.1073594
29.967442,0.97445,-1.1665457
2.1117492,4.9716125,2.33438
-16.38001,2.9172935,-2.1239958
30.24857,-3.449102,3.2038078
0.36812532,5.5584474,-2.5041766
-0.65377176,11.216462,0.120118976
-25.0991,7.468227,4.4488626
0.61586237,0.37967324,6.5826244
-10.488143,2.225036,-1.7872095
-11.897851,5.279588,3.1814911
0.2646564,5.4532285,0.025807703
17.584991,2.1541827,1.4679223
23.764425,-0.8246123,4.384173
20.932951,4.8356957,-2.3005362
-26.419195,5.376024,2.351982
22.871265,1.0875294,-1.5921456
24.001667,-0.21562856,2.4808357
23.103205,-0.120420605,1.2917403
17.639156,0.10626164,-2.4850137
5.63674,2.6235964,-4.675982
-5.1271076,1.7500913,4.277147
-0.115674004,0.8064129,6.163299
10.948958,6.7274528,0.030245142
2.2145123,5.7394047,0.34973487
28.589119,-3.002979,2.1356325
-27.6749,9.362294,1.001499
-8.605042,4.3458233,-1.3720309
-14.906398,-0.07654561,-6.354701
-12.467555,2.2247884,-4.0522213
-0.2698564,7.292849,6.001259
-11.859817,-1.7435174,-8.741056
12.906676,10.982965,0.44303417
-7.9088016,5.2262626,-3.8483164
26.590605,2.8207781,2.215674
31.325964,-3.5992491,2.3446517
-0.5260784,5.9688144,-2.370254
-13.055252,0.7863057,-8.13994
32.646793,-2.6371138,2.4895773
-2.2476604,-4.8443823,8.405622
-7.876543,4.622921,-0.49047837
28.803001,2.4446821,-0.2852254
22.39112,0.18037365,3.7981908
16.983374,2.1971898,-0.33849
23.470272,1.2584915,-1.0774552
11.408197,3.9883409,1.788949
13.216049,3.543651,0.23980217
7.508598,4.7055745,1.9596478
-2.2935276,10.453982,1.1023939
11.194306,2.385908,3.529121
-5.0961876,1.8004386,4.188008
-7.1185775,5.2661014,-4.292347
14.128299,2.898122,1.1726264
-6.057353,4.2778068,-0.27365807
7.074261,6.580579,4.57511
15.547228,6.5343533,-1.6891696
15.599426,-8.555318,5.8377786
-1.6383438,3.253088,4.987199
5.268362,4.471009,-1.6566803
13.018575,-0.7996209,4.652953
2.5941098,0.48272327,4.2087297
15.137366,1.9766742,3.6199055
15.045879,3.8540113,-0.4942708
23.387856,-1.4858991,1.7673433
24.92537,-1.5883837,5.716206
-26.111637,8.053379,2.6719365
16.724941,5.860075,4.558372
-17.655718,4.7126746,-0.4188954
-23.09897,7.571603,4.0502467
12.689804,-2.0936484,6.914793
2.068547,5.287197,2.630538
0.83318776,9.037342,-2.7404108
15.142161,6.6554837,-1.6899145
21.56425,3.7629428,4.2872844
-10.54411,3.165891,-6.6281533
19.6357,4.929134,4.401404
-4.435568,4.939818,-0.71617085
-1.7288177,1.651915,2.2912233
10.762444,2.1850433,1.0977739
-27.795916,6.9807706,0.6831967
-1.8923868,1.7559924,6.919321
13.22915,-2.5702007,6.855783
15.451712,3.095738,0.44826186
14.90617,7.390651,-1.5069685
16.846922,3.1521678,-6.105256
0.8975132,5.6313615,-1.51353
28.478735,-2.3763971,2.7329466
6.8667593,9.345373,0.59344476
21.680817,-1.4120525,0.5973093
27.909458,-2.1065338,4.834864
-21.829964,7.2716455,2.8440568
-2.1774008,2.476812,-6.607727
16.92354,5.760748,4.405408
5.8585052,3.9168913,-0.014582561
-0.9604725,2.5078225,5.314144
14.071793,0.41932693,4.5026
-11.596048,5.5116124,2.9996858
15.066184,6.7375083,-1.2785698
-8.992555,5.428078,-3.1971571
20.334846,-2.077914,3.610211
12.425546,6.781861,1.1823567
15.927762,-0.6769,1.094224
14.160695,2.3031762,-1.2702377
-20.940079,7.375072,0.6280602
-32.511246,10.791665,-0.2078016
23.851683,-0.9036831,4.465413
-8.31385,4.7433763,-0.8081992
-16.246061,6.1762176,-0.84323996
28.78191,-2.9015727,2.315339
-0.06331922,11.188863,0.72617984
-10.072772,4.0120826,-7.12547
1.793789,4.3251734,-3.8113513
-2.5617497,0.93433326,3.4839976
-15.56946,7.0980415,2.0644069
-30.65168,12.517082,2.2549334
-20.600967,7.4869366,3.2711337
0.9234935,4.760926,0.26971316
-5.6276364,7.7758846,2.2373593
30.003353,-1.8087537,6.192259
21.121037,1.9247426,0.5866002
29.676584,0.9420051,-1.0973527
14.845064,0.0530201,5.591744
24.858706,-0.5877189,2.8381166
-13.663141,-0.187826,-5.8599157
24.079824,2.0805528,0.44040716
12.733311,11.073966,0.73558193
-20.428064,7.5479255,3.311139
5.0037127,3.22944,-0.063064076
-32.502518,10.645471,1.4143165
6.229731,9.247982,-1.289528
22.70436,1.6816502,-0.5306535
-15.214981,7.356475,2.9492083
6.3188972,9.024095,-0.6164802
9.529494,-12.537461,1.206553
30.793,0.8676493,-1.9359524
7.1487174,0.83231366,2.1694582
1.5218228,0.13344906,4.713126
-0.8267769,11.660474,0.6532942
27.835634,4.2499866,3.765372
-9.197321,4.310411,-4.09581
-17.636963,0.54753125,-5.730455
23.23568,-4.4671702,5.570746
2.5417705,4.4057493,3.6549723
6.640602,8.940213,-0.5362022
5.408362,6.705715,4.408758
23.430779,-1.5071732,1.6981349
10.364039,1.1435376,-6.136884
1.1572853,5.314948,-1.163373
6.577071,-0.0821345,-7.0894985
15.194499,2.7869568,0.4147121
7.102391,8.8280115,-1.2350334
-10.559456,1.7821872,-3.8854268
-17.7017,5.595218,6.1128664
6.1518903,4.2023606,-5.798117
0.9635888,2.701006,5.4210157
-15.286854,4.013404,0.4551535
4.746548,4.419769,-2.2922182
22.684172,1.4650561,-2.3232849
8.771049,9.8397665,-1.1665889
19.867043,2.9179246,1.7903702
-9.226328,5.498999,-3.206676
-12.615084,2.14057,-4.101335
0.79476166,5.479875,6.219573
13.523625,-0.7052615,4.960253
-30.791996,12.490338,1.1334612
-32.00272,10.54129,2.3636062
5.0272093,4.659522,2.396759
13.83374,2.4734561,-1.3119208
24.14269,2.7830374,0.6127509
7.1498327,9.692838,0.80031925
34.745308,-1.6210763,0.22580464
30.413937,-3.5048528,3.0730932
0.21619235,5.5382442,-2.6422875
18.23501,4.244456,2.685733
-2.797451,6.061498,-1.9667497
24.27801,0.2623163,1.7202275
16.752323,7.920188,-0.4282437
28.730074,-2.7861829,2.366936
15.166347,2.6841557,0.49184006
-1.8870156,4.6676197,2.896094
10.008645,-0.842389,-0.11938342
7.544396,9.4538145,-0.24623023
36.2897,-1.85493,1.810185
19.783564,4.971065,4.1475186
18.861824,2.3387241,1.4039116
10.81089,4.5575047,3.6880577
4.584403,4.9784756,-6.86425
-18.577908,0.36477917,-5.0597477
15.968831,2.2225904,2.226576
-11.712088,-1.6729591,-8.940332
19.43194,6.2272325,1.913826
-8.574084,4.231965,-2.1926773
-1.4184625,4.9393487,2.7403505
19.522346,3.1434212,1.7045006
19.660896,6.5892286,-2.7290072
1.8801475,5.6838107,-4.834665
2.5977814,4.5579658,-4.0381117
-11.924852,4.260442,2.8862655
23.037113,-1.701914,1.6565484
25.50151,-0.9567941,1.1512796
10.830083,4.839276,3.6463878
-10.317994,2.850082,-4.1687975
20.266455,1.7084275,1.4119004
17.118906,1.9779209,1.5417851
-14.255016,0.355757,-8.393807
-13.102695,3.1996331,-8.734082
21.259325,1.606173,1.3860338
9.926711,4.8510942,3.9521306
3.7928333,5.146618,-6.0450735
23.315825,1.9091389,-1.5762573
28.72675,2.3090968,-0.44021353
-12.168312,-0.7699724,-0.37297896
3.587027,4.3818593,-2.4092345
-8.252733,4.626647,-1.4409306
21.619112,5.411799,-1.2500945
0.99396133,-0.7114476,4.535187
4.3523192,2.0042198,6.0960145
-0.0940224,5.4447455,2.4035575
33.45308,0.29201853,2.8666363
16.345678,-0.25232306,4.383741
18.230516,6.5252924,-0.08415173
1.9383614,0.52234566,4.3437266
20.304813,-2.1125498,3.5544615
16.224585,2.5673497,1.0570734
-0.327352,0.3249863,6.2645984
25.233562,-1.6144816,-1.6523541
-13.026212,1.0113406,-2.0412607
28.709032,0.9227575,-0.573017
25.65454,1.9078143,-4.5700426
18.552702,4.951559,4.717784
-9.889596,6.7047887,-3.9953923
-11.794604,-1.8532931,-8.847736
9.360077,9.664708,-0.959533
-10.557811,3.10246,-6.594911
0.30804905,1.4956017,7.3898478
0.9465614,5.3396077,3.1245584
17.02224,4.7340527,4.395691
12.867357,10.967967,0.4820284
-28.259026,9.51006,4.0152
-26.907677,6.8228188,2.9339678
-6.1629133,4.172079,-2.9800248
2.0856879,4.526157,-3.3823683
4.106261,5.047757,-6.300442
-31.656343,10.632276,2.0767996
-20.002954,8.009243,3.9669538
21.796608,4.359944,-0.64247316
21.58849,0.41916174,4.4778523
27.878862,-2.0425653,5.105363
-0.09775472,8.752079,-0.19349083
-6.7827806,4.976103,-2.8668096
8.306322,4.7417607,2.5632641
-15.395503,4.111408,0.381497
15.866395,5.252075,-1.4534929
-7.3666134,4.8524084,-3.917099
-32.353867,12.107658,0.036091007
-2.3067806,3.2589934,6.2027173
-10.903265,1.6931113,-1.4259523
-8.50772,5.0921273,-0.98094034
32.045998,-0.95135105,-1.3347826
12.759312,11.004421,0.6168749
24.455479,1.1244358,4.677483
0.34339753,5.6430383,-2.9862022
28.03223,3.1972413,4.204947
15.746927,0.5545783,4.3423944
-11.2674265,2.8488796,-3.7189388
-11.7854805,0.13599965,-5.560765
3.5813644,4.5486827,-2.8721476
19.956871,-1.9749714,3.8359723
24.086655,1.6319374,0.34512663
-8.36741,6.653728,-1.3527241
-30.146193,10.698137,1.8429449
-1.570859,5.1044073,3.2962193
14.16603,0.2997418,4.4686613
-30.195883,11.029338,1.0859658
17.38511,2.1028888,1.4455396
4.2928615,4.818619,2.8763824
-9.388385,3.7961974,-3.6173944
-26.226904,6.289985,1.6436521
-0.27953693,7.347343,5.9911456
0.1006703,4.679864,0.035998978
20.236174,-2.0741823,3.6713204
4.923222,6.4386797,4.7747045
12.388264,3.5536,-4.0080047
7.5264845,5.4881244,1.3867543
-2.4623141,3.1957197,6.2592115
-16.410053,3.021044,-2.563154
-3.6691027,5.6128836,0.198529
8.356883,4.4800415,1.5150445
15.412499,1.0161921,4.7819595
25.10827,1.1956496,0.3123169
6.7862744,9.144663,-0.5001691
-16.399158,2.0980406,-5.931201
0.7096374,8.924653,0.8467254
-2.085121,2.5979419,-6.59642
29.413685,1.24612,-0.4124268
-1.4509001,5.791147,3.6190636
9.074832,4.719254,4.4186134
34.077408,0.059329126,2.9444528
-18.642727,4.808604,-1.6542331
10.980793,-4.431667,5.171671
10.171427,7.62555,-4.9743714
-12.506588,1.7896872,-0.96996343
19.12895,-8.902981,5.726339
-3.2042663,1.9233191,-2.1537704
2.1066358,-1.8480769,0.0076512457
23.390682,5.7535906,-1.6091319
-15.374561,1.9408195,1.2387418
31.797964,-5.255919,0.2609184
22.5216,-8.002619,4.1928368
-15.574822,2.0406055,1.0034513
20.9307,-6.6520066,3.1600869
7.310795,-3.4844835,1.6559649
-22.887331,6.4288983,-2.2619326
32.831898,-7.4469843,5.032304
15.689837,-5.6887627,3.8472137
15.18772,-6.2699637,3.5949726
-0.6570709,3.9925923,1.0421207
-16.95646,3.3218184,-0.27057877
16.934296,-1.4995178,0.06289356
17.972454,2.023328,0.9278014
-8.959398,2.3627913,7.9440203
18.758026,-6.612708,4.2492375
11.350156,-4.870201,4.164729
30.25965,-2.279945,2.8292546
-15.61168,2.1349127,1.6069795
-24.824966,5.3334017,2.91907
-16.0994,2.0246756,0.78384197
-14.360106,2.0141437,-3.079083
8.50148,-6.978075,6.16192
-12.662423,-3.474628,-0.16307887
11.895504,8.116727,-0.8076902
32.895866,-4.764922,0.30490407
-13.719177,3.5150928,-3.022936
-16.311913,1.7039944,-5.3335404
-9.733085,-0.2257497,-2.035877
-2.5606298,1.9926845,-0.6513411
18.496712,-9.261872,6.1865277
-12.043238,-4.396499,0.84844077
-13.148916,4.9443064,-3.1772187
35.491512,-6.454713,0.17434882
9.880601,6.1476736,-5.036925
0.0483835,11.056072,0.70042336
12.025737,-1.1686257,-4.4569654
2.553447,0.85954005,-2.6909873
-9.253755,1.1953759,-7.434613
-3.9291575,-0.9261978,1.0195047
41.295444,-6.4478626,1.7696604
23.182959,-7.0990477,3.6597493
34.636665,-6.9338927,1.225589
-29.278975,10.5958605,0.57355523
-23.677502,3.983113,1.8072798
38.594395,-6.8867335,1.2257442
12.080035,-5.1730895,4.4107485
-18.660814,2.9211192,2.233793
5.3674946,-0.2112105,-0.88103944
13.375608,-5.6744885,3.4792519
-4.395878,2.1045518,-1.4001875
17.09245,-5.4789443,4.1841726
23.419945,-8.220298,3.9682233
-25.765089,8.605336,2.3243482
-5.402994,3.349977,0.27248666
9.933342,-7.214987,0.844228
2.0895689,3.1075778,-0.05813525
18.143068,6.804563,0.36330703
22.978296,-1.2038137,2.4503727
-14.542023,4.0765376,2.285579
16.130465,-5.390985,3.807009
10.402377,-4.017239,5.5327287
23.203241,-8.754699,4.0769095
-7.480567,0.44330207,4.6999607
8.590585,6.738455,-2.5380864
-5.6488557,1.5162164,-0.64554214
21.372541,-7.266183,2.2429776
11.331674,-4.266114,4.1318884
-9.051956,2.215552,7.9179683
-14.209915,3.1221197,-2.884141
-12.282952,-0.41738188,1.0666878
23.328909,-8.693268,4.0351243
18.900047,0.4672467,0.5928467
-9.598221,-0.4558443,-7.7628555
39.77832,-5.560127,1.2842135
35.382965,-6.633381,1.3913099
-11.385491,0.94721603,-2.7099407
12.188061,6.9997826,-1.6255608
39.81485,-5.625047,1.4282619
11.132292,-0.26568338,-3.307882
32.440937,-5.7489815,0.97515374
-29.639256,10.413639,0.97113496
4.501695,3.5250912,1.5234152
23.150805,-5.75429,-0.037336417
7.2759433,10.232873,-2.979663
41.435696,-6.1432,1.8371618
20.990099,-2.9571397,-2.461596
10.075295,2.5213642,3.0174966
-13.042373,-1.0846374,7.606318
-29.451786,8.502263,1.8559898
-0.33234397,10.249511,2.7536416
2.637468,2.8632324,-1.4786134
20.86852,-6.4979057,2.2988422
38.42818,-6.136235,1.7239585
9.51857,-4.3607907,3.8571274
-8.716692,1.4245193,6.924977
21.243996,-6.7935963,2.7888834
19.018639,-5.358014,2.9137862
32.27599,-8.170269,5.2479277
12.522778,-3.7188258,1.8688239
4.6414094,0.08288198,-2.5161788
-26.704964,7.944421,1.3791147
-3.6673439,2.3701758,-1.3997674
-0.52517366,4.639569,0.7746843
-14.475905,3.9504778,2.13514
15.665839,5.3048406,-1.5528449
18.064383,-6.9970098,2.7494726
19.350338,-0.095146306,0.1158332
-11.563293,1.0675652,-2.3632655
-11.244353,-6.0053263,7.1705227
19.901028,-7.830947,5.4554396
-12.512139,-5.4895253,6.5078425
19.616207,-6.447921,4.0289817
11.666673,-5.0359282,5.584417
9.395008,-4.9212875,4.9384494
-1.1379473,12.140684,1.3451234
18.819023,1.0547739,-3.4905238
14.735964,-5.468381,2.9611557
13.317029,-9.109017,5.0749183
35.788467,-5.1360497,1.8790301
8.373863,2.0743496,-2.304661
-14.571761,-2.6187873,5.5909905
-31.830172,11.432219,3.0973918
-2.7795238,4.9086747,1.8968172
-2.9661276,1.0265951,3.40628
38.706608,-6.586316,2.715336
-19.319355,4.9151735,0.7344455
17.660393,5.3436294,-0.83806986
4.962074,6.513178,-3.1311693
38.783134,-6.4564843,2.327908
20.379639,-6.4953346,2.5302877
-1.232954,3.7744427,-0.63528645
36.327835,-6.4761553,3.6809754
14.071591,-5.7462645,3.611745
-9.041245,2.2819793,7.927891
19.755957,-5.9428473,3.440717
18.450523,-6.5859623,4.3104243
33.13904,-7.569967,4.317379
-2.3002357,3.4072943,4.872601
-5.095911,1.5058933,-1.293142
34.25268,-5.917968,0.75366807
12.232256,-5.3023505,-2.8116643
11.201711,-4.5708885,5.4428353
12.568254,8.840465,-3.0362236
-4.185867,-4.1183906,7.7566023
10.601217,8.70856,-1.4600259
1.0561415,0.47861445,-1.1359828
-20.976168,7.033932,0.30478328
18.964342,-0.23459268,-2.7273686
-2.8713005,1.6395901,-1.7147117
36.621162,-6.1711507,3.4029574
1.7744489,-0.48762184,-1.6287919
-18.973898,5.298557,-2.7317429
21.861961,-6.491264,3.190777
33.140785,-7.3992834,4.7140627
40.588223,-6.0593815,1.3432069
17.72299,2.3106,3.4317026
8.634653,-4.8063717,4.8203144
17.348356,-0.8992472,3.145193
33.89491,-5.9744377,1.185874
15.266855,-7.7677574,3.3217647
16.605865,-0.2085436,-1.5972773
14.783989,-5.9471254,3.6032705
7.7234263,-3.4439826,4.5406904
-14.55487,1.2321647,0.22370024
-16.694328,3.7943876,-0.46678445
-27.980423,9.774865,2.878837
23.012764,-8.7376795,3.758103
15.55265,-6.2467117,3.6472788
-20.961039,5.648999,-2.913646
35.36017,-4.411812,0.9643138
12.632667,-6.646114,5.1049476
28.700941,-1.9829162,0.49684775
34.81659,-7.2428417,0.62451154
34.565144,-6.591274,2.1104147
34.57551,-5.6952896,0.8415424
37.583675,-6.51309,0.8202735
10.640178,-5.7284145,4.5370955
16.98585,-5.7950673,4.9344945
39.23005,-6.4087324,2.1657307
7.67365,-1.9536679,2.1463811
-1.5549722,-2.1827476,-4.747212
11.055926,-0.12752052,-4.022325
-1.2274588,4.031524,-0.6971955
11.288396,3.4665346,-4.1743073
11.419427,8.784276,-1.6189666
22.769716,-0.3942149,4.3808603
8.344157,2.7533934,-1.7156607
-1.2293253,3.67465,-0.7970304
32.80852,-7.7389836,4.720081
-11.437631,2.0621176,-1.069541
14.6742,-1.267902,-4.4083853
8.572198,7.951888,-0.8062906
21.608664,5.0031266,-3.140371
22.928488,-6.9317603,3.5569568
38.18644,-4.5193925,1.2542874
-10.444433,1.7682831,8.103931
-2.8460581,1.8286037,-1.7505606
-3.5132997,1.3168968,-1.1682373
12.9598675,2.1817913,1.8156323
-17.020178,2.5807846,-2.4828973
-7.287982,1.6197238,-3.9437814
35.254246,-6.1751103,0.9121999
17.981483,-8.874817,5.091212
10.234168,1.3193498,-4.433863
9.803239,-4.0387607,3.8108335
-14.549895,1.603194,-4.816463
-26.431803,9.132052,1.4696797
39.72605,-6.40357,2.1528263
-9.381446,-2.0266871,0.74990803
-7.4771256,-0.575443,0.16922581
-21.954655,5.094752,5.6365414
9.260102,-4.9540534,4.3736377
-13.845977,-0.7433814,7.66806
1.2941436,-1.490801,-1.0317463
11.506735,1.7467123,-2.8613565
39.545937,-6.3035088,1.7661093
-20.610868,5.4642386,-0.55978644
20.831108,-6.3210745,3.2417078
10.9921,-0.23103257,-1.4325864
1.1325239,-7.081303,5.676925
-19.12162,5.40634,3.938549
36.666668,-6.2822633,3.2681565
-25.102158,3.5920765,3.484346
-11.169325,2.7135062,-0.3760932
10.602548,-4.9291143,4.586594
10.728977,0.21693306,-2.7856066
-25.403162,4.7903156,-0.23079304
12.482219,3.0728443,-4.409526
14.798374,-5.458348,0.73138016
-1.5312415,-2.072441,-4.700847
14.5763035,-5.292951,3.6717567
-19.997145,5.8877277,-2.6030066
12.301207,10.203737,-2.4868357
33.242985,-5.776607,0.44145533
14.934739,-5.1928897,4.016054
23.559746,-8.174408,3.8918872
17.955263,2.4894154,3.3667724
-8.160331,4.713287,5.067323
1.8595366,3.2198324,1.2281678
-12.465377,-5.449411,6.499106
14.424312,-4.608197,4.599376
27.34125,-3.153558,0.33375835
18.075918,-6.058441,3.950843
12.32596,-3.9099271,3.408738
-19.341219,5.7633247,-2.167113
17.410912,-5.9666395,3.6189208
8.126943,1.7709718,2.4872417
5.754793,1.6009274,-3.6554637
18.457703,1.4093138,-3.650942
26.555368,-1.7622753,-0.15235558
23.961452,-7.821272,3.866515
15.031388,-5.684162,2.9751098
-9.355611,-0.21453625,0.09393411
-11.628697,4.3918357,3.670194
40.184814,-5.969645,1.2859919
7.614716,3.852254,0.19551179
-14.038882,-0.6529888,7.4953556
32.601692,-7.7417126,5.0433254
20.000477,-7.9284096,5.3440385
-17.14929,1.5697412,-4.4843974
-25.05465,4.0570946,0.4641922
11.056712,10.382782,-2.759333
8.019978,8.466189,-2.2055864
-5.74274,-3.6266816,4.656268
17.022928,-5.457457,4.1612234
18.754484,-6.3399434,3.8887267
17.862432,-6.6529107,3.6166298
-16.568357,3.0755765,0.42653784
-14.005559,2.090731,-1.5031995
-18.585566,4.689533,-1.5587231
40.743195,-6.3863115,1.7986399
0.048261024,12.560432,1.2834944
-15.095697,1.8733658,-2.4054158
-21.880297,5.4385705,-0.54329306
27.688171,-3.7037978,3.553751
7.0544376,-1.05667,-1.6909872
17.877226,-7.2099404,3.945923
-9.589545,1.0861372,-7.5612316
-13.256834,-1.0068557,7.5751452
7.746593,3.4419796,-2.5680854
-10.524257,1.7561538,8.121181
13.920952,-5.1406217,4.3693
-12.46923,-5.141581,6.0564613
37.85922,-6.7932167,2.9781187
32.22646,-4.862965,0.039773896
18.584091,-9.197001,6.140948
18.343353,4.9664826,5.0017323
-14.194124,1.8348761,-2.2846117
-9.772875,1.6606086,7.8285146
5.899679,0.1535581,0.39934444
4.207563,3.3337753,0.56455797
39.6831,-6.069201,1.4639533
8.499019,-6.847996,6.1753736
-20.266708,4.9689693,0.14750612
-28.273355,9.226224,1.0638077
21.265303,-6.3711405,3.9025743
19.840649,-5.881789,4.7014885
36.04582,-6.1431427,0.10811798
7.3092866,-3.2950342,3.9122715
-0.4080639,-1.0274205,-2.6650221
8.553564,1.4856763,-5.830128
-0.23861824,3.3539314,-2.553096
10.281656,-5.9006634,4.5815215
4.855079,1.0908389,-1.4454215
8.876002,-4.7542963,4.235418
1.4864964,11.024147,1.7738898
27.19873,-3.716553,3.5456061
34.434345,-6.562431,1.590081
15.263528,-1.3709178,-4.1808696
23.970795,-7.699209,3.8922963
34.73231,-6.5409164,0.5330034
34.81934,-6.7660775,0.6771395
-1.3388078,-1.6468005,-5.332117
-20.992664,5.4618526,-0.5000248
16.813213,-6.312305,3.922581
17.541904,-6.0660324,4.0611615
8.667987,-4.9889092,4.3612514
-6.7590947,1.6037836,1.6432755
10.9428005,-4.5469117,4.4889264
17.849218,-6.5969324,4.078407
9.618508,-4.684707,3.9195142
11.967309,2.0051637,-2.0835793
-27.88828,9.940978,1.4136112
11.364058,-5.016775,3.8403301
-11.571543,0.7813673,-0.55784774
11.536057,-4.4272256,5.724181
21.33018,-7.18965,2.2901611
22.350779,-2.4244287,-2.7190294
19.86633,-7.755416,5.4251833
-14.973436,1.7711434,-2.0156186
33.13672,-7.3518195,4.6788063
11.810871,-4.3953757,5.7210917
2.627817,0.10738325,-2.5681605
34.590534,-6.662615,1.5506326
23.612175,-7.8704243,3.995769
15.672263,-8.868049,4.1800203
6.9967437,7.1809335,-0.22879206
9.967162,-3.6634924,5.685793
17.454823,-4.5711894,2.7824795
9.951934,-3.4137206,3.34688
32.127354,-4.670663,-0.3735348
9.36344,-4.330366,5.601261
16.016045,-5.8818192,4.1754913
18.438309,-7.466288,4.1027503
-31.396572,10.639225,2.670061
-15.19936,2.743325,-2.0473106
13.458137,5.9112287,-1.6896499
-28.6322,9.157539,1.6456184
11.254679,4.0142503,5.1733584
-17.825554,3.6900616,1.5449488
-18.174484,2.2564085,0.86033434
42.039703,-5.924182,0.7051678
20.92699,5.0654488,-3.5061781
19.474262,0.82845646,-5.2470994
34.525406,-6.6276765,0.47758752
-10.523591,1.4674325,-1.9354664
-6.345506,1.3876038,-1.3352852
14.84222,-5.903946,3.4653292
5.6953588,9.92476,-2.4178631
-0.26055515,10.015032,2.5488923
15.827266,-5.406382,4.3279896
-28.975847,9.639967,1.5510412
32.315434,-5.5502462,0.80853003
-1.5835068,-5.485165,4.883826
-29.269184,10.146633,2.7073596
-19.662092,3.2915223,-1.7673925
-11.765813,1.476101,3.0659857
-14.307373,2.0830042,-2.9573948
-0.027683927,8.2962265,1.5600729
-14.952747,2.6021175,-2.3485308
-2.636456,0.697758,5.4381595
-2.318178,10.606911,1.0293019
37.164417,-6.352446,0.6186913
21.062256,-5.471755,2.297735
-23.76831,3.9733803,2.2011123
15.419111,-1.5764896,4.956961
23.936796,-8.364011,4.0008397
3.46538,-0.5334139,-4.344337
12.222949,-0.40880442,7.3727994
13.191461,-0.5037784,-0.32733017
4.1278,-1.7620881,2.716029
10.651764,-4.9477477,4.49765
-1.036107,-0.23333661,5.9085383
11.229234,-1.8878791,-2.572905
14.468555,-1.3094543,-3.570646
13.555932,-1.4947072,-1.4799494
37.811424,-6.581216,0.9835032
14.961765,7.5132995,-2.0801477
9.272956,-4.9430165,4.7372923
-11.08356,-6.0186653,7.0144973
18.892487,6.584436,0.23889159
-19.257433,4.634073,2.1248357
17.608826,-9.0321455,5.482253
-5.0372744,2.5366693,-0.7165662
-2.0428767,2.4228187,-0.11575507
12.183378,2.8062272,2.9099975
20.429317,-6.031804,2.853306
11.576052,4.335016,1.4002037
12.698644,3.2052114,4.3858094
20.43676,-6.8876276,3.450606
23.158228,-8.2466755,4.3549914
35.825714,-6.670463,0.73927903
-5.981006,1.4009771,-1.8400043
24.215324,-8.115993,3.7988183
18.764503,-9.204042,5.9007483
5.549711,2.9618058,-3.0927925
15.408059,-5.94119,3.9128277
10.880831,-4.4699006,5.0514855
4.3883867,0.12426226,-2.2933564
-13.182733,5.1031084,-3.3902588
1.179451,0.049779806,-3.571686
5.642884,2.5267117,-3.2478456
7.329344,6.610622,-3.0482917
35.12775,-6.589264,0.6495895
12.684133,-3.630183,3.9083176
31.273457,-3.4975235,-2.21506
-6.703643,1.5920982,1.492761
14.6523,-4.0377817,5.203623
-22.427784,6.0404305,-1.5111257
-1.4681712,10.502989,1.9791771
22.915255,-8.104468,3.9941826
21.853926,-8.8327055,3.121044
1.7722852,1.7632359,-2.5674703
-14.778634,-4.6166735,1.741113
-7.1725354,-0.26140344,1.5954858
18.96386,-6.4713755,3.2103043
18.516546,-8.761775,5.3471985
7.398521,-0.12602398,6.041531
36.27671,-5.708276,0.22919999
33.917824,-5.608887,0.91220313
-6.5907564,2.581413,2.7714357
21.981304,-7.4064393,4.35796
-13.146149,-1.0330381,7.5883226
18.16036,-1.392955,4.821876
-7.079351,1.2759606,-3.4706256
-9.250737,1.7938635,-1.663512
1.2507174,-7.233946,5.7146926
12.606344,-5.3219185,4.395843
